epoch,train_loss,val_macro_f1,val_accuracy,theta,w,w_norm,lr
0,7.887520456459464,0.6723279173448403,0.7692307692307693,-2.0,0.11920291930437088,15.138811111450195,0.01
1,0.8615186334383197,0.8167284416859866,0.8591549295774648,-2.0,0.11920291930437088,17.609582901000977,0.01
2,0.5179129593619486,0.8338550256883911,0.8732394366197183,-2.0,0.11920291930437088,19.44683074951172,0.01
3,0.47751765043997185,0.8223221864121608,0.8764897074756229,-2.0,0.11920291930437088,21.2005672454834,0.01
4,0.5153232700214153,0.8089385526646946,0.8602383531960996,-2.0,0.11920291930437088,22.83527374267578,0.01
5,0.493434995594548,0.8203660355092477,0.875406283856988,-2.0,0.11920291930437088,24.566287994384766,0.01
6,0.40810540245800486,0.8208454584972618,0.847237269772481,-2.0,0.11920291930437088,25.340576171875,0.01
7,0.44939971260908174,0.5968589172265644,0.7475622968580715,-2.0,0.11920291930437088,26.05730438232422,0.01
8,0.828431751669907,0.8323121861847849,0.8602383531960996,-2.0,0.11920291930437088,30.593238830566406,0.01
9,0.4956331605591425,0.7610772832038555,0.8244853737811484,-2.0,0.11920291930437088,30.82727813720703,0.01
10,0.44854772036395424,0.6474859105294886,0.7648970747562297,-2.0,0.11920291930437088,30.660011291503906,0.01
11,0.846491272674828,0.8778612129744786,0.9068255687973997,-2.0,0.11920291930437088,34.71054458618164,0.01
12,0.5556622038527232,0.8560813853029587,0.8938244853737811,-2.0,0.11920291930437088,34.6436767578125,0.01
13,0.43102502895564565,0.7232637558344529,0.8071505958829902,-2.0,0.11920291930437088,33.985321044921875,0.01
14,0.8208511511727077,0.8141744251379874,0.8537378114842904,-2.0,0.11920291930437088,36.367919921875,0.01
15,0.5860179802630006,0.7625767052105477,0.8429035752979415,-2.0,0.11920291930437088,37.17142868041992,0.01
16,0.5013235027833682,0.9005791274358701,0.9230769230769231,-2.0,0.11920291930437088,36.68837356567383,0.01
17,0.5428261320765425,0.575565346039717,0.7453954496208017,-2.0,0.11920291930437088,36.72877502441406,0.01
18,0.8966015092119938,0.8471778258451345,0.8808234019501625,-2.0,0.11920291930437088,38.72159194946289,0.01
19,0.4574268820082269,0.8857152665891863,0.9079089924160346,-2.0,0.11920291930437088,38.10514450073242,0.01
20,0.47457751141088766,0.8004015371247583,0.8331527627302275,-2.0,0.11920291930437088,37.34891891479492,0.01
21,0.3582078398364346,0.9096088808579251,0.9274106175514626,-2.0,0.11920291930437088,36.19229507446289,0.01
22,0.4849113191409809,0.8663857048369182,0.886240520043337,-2.0,0.11920291930437088,36.30869674682617,0.01
23,0.846216928122974,0.7946884750652286,0.8515709642470206,-2.0,0.11920291930437088,38.78299331665039,0.01
24,0.44863025044522636,0.866709143348191,0.8959913326110509,-2.0,0.11920291930437088,38.045326232910156,0.01
25,0.4112547921334825,0.7303164328873846,0.8028169014084507,-2.0,0.11920291930437088,37.29536437988281,0.01
26,0.5958745385088572,0.6880038468039968,0.6793066088840737,-2.0,0.11920291930437088,38.21168899536133,0.01
27,1.039258191316593,0.6282284363077182,0.7865655471289275,-2.0,0.11920291930437088,42.20027542114258,0.01
28,0.7535439449839476,0.8851138257365715,0.9100758396533044,-2.0,0.11920291930437088,43.73371124267578,0.01
29,0.5174789038009759,0.8427961175339176,0.8613217768147345,-2.0,0.11920291930437088,42.2078971862793,0.01
30,0.7644006889767763,0.744789202757919,0.8266522210184182,-2.0,0.11920291930437088,41.89393997192383,0.01
31,0.6398597445066382,0.895362307235888,0.9133261105092091,-2.0,0.11920291930437088,42.18144989013672,0.01
32,0.3659561908826595,0.8769530329109501,0.9003250270855905,-2.0,0.11920291930437088,40.01827621459961,0.01
33,0.9372192205088895,0.8687551534480494,0.8884073672806068,-2.0,0.11920291930437088,43.364444732666016,0.01
34,0.5891297027105238,0.8307531551782776,0.8851570964247021,-2.0,0.11920291930437088,42.70284652709961,0.01
35,0.38764674743501154,0.8963092915159532,0.9219934994582882,-2.0,0.11920291930437088,40.827186584472656,0.01
36,0.8241931639793443,0.7201672691340105,0.7681473456121344,-2.0,0.11920291930437088,43.67864990234375,0.01
37,0.7820482679256578,0.6761523907895445,0.7345612134344529,-2.0,0.11920291930437088,44.06626892089844,0.01
38,1.0697813942665007,0.8620308480332616,0.8905742145178764,-2.0,0.11920291930437088,46.75728988647461,0.01
39,0.8076118619703665,0.8699759333266408,0.8905742145178764,-2.0,0.11920291930437088,46.321685791015625,0.01
40,0.7846769007240854,0.8824852137259429,0.9068255687973997,-2.0,0.11920291930437088,47.449440002441406,0.01
41,0.6075101800081206,0.8867759584375626,0.9068255687973997,-2.0,0.11920291930437088,46.4394645690918,0.01
42,0.3832070651214297,0.9133213837425697,0.9317443120260022,-2.0,0.11920291930437088,44.040611267089844,0.01
43,0.6983326866132457,0.8114910354144659,0.8353196099674973,-2.0,0.11920291930437088,44.90117645263672,0.01
44,0.39566558508611305,0.8933678597129673,0.9133261105092091,-2.0,0.11920291930437088,43.0452766418457,0.01
45,0.4134733335274022,0.8890449380350676,0.9035752979414952,-2.0,0.11920291930437088,41.73711013793945,0.01
46,0.7227457928948287,0.8510754652261934,0.8916576381365113,-2.0,0.11920291930437088,43.64764404296875,0.01
47,0.6473897822746416,0.9026669877978695,0.9219934994582882,-2.0,0.11920291930437088,42.86469268798828,0.01
48,0.4162651858315235,0.8866908119555198,0.914409534127844,-2.0,0.11920291930437088,41.5053825378418,0.01
49,0.4407297380086852,0.8839843112658485,0.9133261105092091,-2.0,0.11920291930437088,40.677093505859375,0.01
50,1.381786139636505,0.8516168922586426,0.894907908992416,-2.0,0.11920291930437088,44.995243072509766,0.01
51,0.5140273383841282,0.8306914336774099,0.8764897074756229,-2.0,0.11920291930437088,43.794593811035156,0.01
52,0.5594992343245483,0.8930096179876795,0.9165763813651138,-2.0,0.11920291930437088,42.96440887451172,0.01
53,1.14737173624155,0.856277055359312,0.886240520043337,-2.0,0.11920291930437088,47.032814025878906,0.01
54,0.5491048835399674,0.8780780866071222,0.8981581798483207,-2.0,0.11920291930437088,45.94268798828125,0.01
55,0.5727619232564438,0.895160839162372,0.9176598049837487,-2.0,0.11920291930437088,44.346439361572266,0.01
56,0.430799357774781,0.8255411430306934,0.8743228602383532,-2.0,0.11920291930437088,42.71329879760742,0.01
57,0.8457482591634844,0.8515981312266208,0.8786565547128927,-2.0,0.11920291930437088,44.46735382080078,0.01
58,0.49909496798021036,0.8907522097186167,0.9176598049837487,-2.0,0.11920291930437088,43.38368606567383,0.01
59,0.840190786777473,0.8319159771978738,0.875406283856988,-2.0,0.11920291930437088,45.21052169799805,0.01
60,0.42268118752938943,0.8209914812715293,0.8429035752979415,-2.0,0.11920291930437088,43.6632080078125,0.01
61,0.543250214399361,0.8017447015699842,0.8721560130010835,-2.0,0.11920291930437088,43.14603042602539,0.01
62,0.5571098405776954,0.875263033224399,0.8927410617551462,-2.0,0.11920291930437088,42.82783508300781,0.01
63,0.4333453463708482,0.8321349399406314,0.8786565547128927,-2.0,0.11920291930437088,41.9151611328125,0.01
64,0.41190558635607,0.6824702396120157,0.752979414951246,-2.0,0.11920291930437088,40.70895767211914,0.01
65,0.806513302755065,0.9193466243548964,0.9349945828819068,-2.0,0.11920291930437088,43.07554626464844,0.01
66,0.42721447403111107,0.8516970599003407,0.8970747562296858,-2.0,0.11920291930437088,42.04685974121094,0.01
67,0.582880198592093,0.7604920230733873,0.8374864572047671,-2.0,0.11920291930437088,41.83631896972656,0.01
68,1.1261700613469612,0.8115734264777735,0.8591549295774648,-2.0,0.11920291930437088,45.538700103759766,0.01
69,0.5461851876319909,0.8262846058905137,0.8840736728060672,-2.0,0.11920291930437088,44.320594787597656,0.01
70,0.8383101999032788,0.8836249503446817,0.9100758396533044,-2.0,0.11920291930437088,45.92668533325195,0.01
71,0.5456414836935881,0.7878235571592346,0.8309859154929577,-2.0,0.11920291930437088,44.51675033569336,0.01
72,1.0983825991066491,0.6801418185215253,0.7085590465872156,-2.0,0.11920291930437088,47.634273529052734,0.01
73,0.9423203940798597,0.8889411610391699,0.914409534127844,-2.0,0.11920291930437088,49.47366714477539,0.01
74,0.5451543233016642,0.8953667999151295,0.9187432286023836,-2.0,0.11920291930437088,47.66010665893555,0.01
75,0.9245842680698488,0.8891579676495563,0.9133261105092091,-2.0,0.11920291930437088,48.26768112182617,0.01
76,0.5764918963356715,0.8903630492496524,0.9100758396533044,-2.0,0.11920291930437088,47.584556579589844,0.01
77,0.4815333193031753,0.8057349515830474,0.8234019501625135,-2.0,0.11920291930437088,45.7439079284668,0.01
78,0.5365199212257455,0.9144949698864104,0.9317443120260022,-2.0,0.11920291930437088,45.03853988647461,0.01
79,0.5288499064925241,0.9223384731289057,0.9371614301191766,-2.0,0.11920291930437088,43.89426803588867,0.01
80,0.5988377790625502,0.6311132061783298,0.752979414951246,-2.0,0.11920291930437088,43.41440200805664,0.01
81,0.6721930205821991,0.9134974320902296,0.9295774647887324,-2.0,0.11920291930437088,44.65713119506836,0.01
82,0.6809533776306524,0.6260657014033473,0.7063921993499458,-2.0,0.11920291930437088,45.12130355834961,0.01
83,0.6162992526845235,0.8750545988885443,0.8927410617551462,-2.0,0.11920291930437088,45.60680389404297,0.01
84,0.7956321448451136,0.8756351146056442,0.9024918743228603,-2.0,0.11920291930437088,46.894317626953125,0.01
85,0.7283601128473515,0.7632970538690367,0.8223185265438786,-2.0,0.11920291930437088,47.16919708251953,0.01
86,0.7814695537090302,0.8153925743031794,0.8396533044420368,-2.0,0.11920291930437088,48.364463806152344,0.01
87,0.5324137666966857,0.8875800836453985,0.9111592632719393,-2.0,0.11920291930437088,47.058937072753906,0.01
88,0.6894800717510828,0.7161185738902023,0.771397616468039,-2.0,0.11920291930437088,46.878231048583984,0.01
89,0.4147496626871388,0.9280834239827168,0.9414951245937161,-2.0,0.11920291930437088,45.02885055541992,0.01
90,2.1851816250056757,0.8540944285219817,0.8851570964247021,-2.0,0.11920291930437088,51.810909271240234,0.01
91,0.4822116468737765,0.9044420924284987,0.9209100758396533,-2.0,0.11920291930437088,49.124881744384766,0.01
92,0.7164363941041435,0.7961894978437429,0.8602383531960996,-2.0,0.11920291930437088,48.15833282470703,0.01
93,0.7073376462226961,0.8567701773776768,0.8786565547128927,-2.0,0.11920291930437088,48.0129280090332,0.01
94,0.3746243464510615,0.8950140504816995,0.9111592632719393,-2.0,0.11920291930437088,45.87766647338867,0.01
95,0.5456304028630257,0.9128728912494577,0.9328277356446371,-2.0,0.11920291930437088,45.415767669677734,0.01
96,0.7263853633549155,0.8939088803829438,0.9154929577464789,-2.0,0.11920291930437088,46.02631378173828,0.01
97,0.41683996995774714,0.9134358691887281,0.9284940411700975,-2.0,0.11920291930437088,44.369564056396484,0.01
98,0.9549276995949629,0.7957113024745874,0.847237269772481,-2.0,0.11920291930437088,47.761470794677734,0.01
99,0.7470172810845259,0.6809754051028954,0.7887323943661971,-2.0,0.11920291930437088,47.3321647644043,0.01
100,0.4769552884305396,0.8765262379094931,0.9089924160346695,-2.0,0.11920291930437088,46.13740921020508,0.01
101,1.00872606257113,0.6527582076462093,0.7356446370530878,-2.0,0.11920291930437088,48.82163619995117,0.01
102,0.711368895885421,0.8913603870727071,0.9089924160346695,-2.0,0.11920291930437088,47.96065139770508,0.01
103,0.5078917271116885,0.8856770382631425,0.9165763813651138,-2.0,0.11920291930437088,46.27349090576172,0.01
104,0.5445114686721708,0.796267319893316,0.8515709642470206,-2.0,0.11920291930437088,45.233673095703125,0.01
105,0.6073385284441274,0.8439915014571076,0.8851570964247021,-2.0,0.11920291930437088,45.54587936401367,0.01
106,0.4379287138581276,0.6333480387244813,0.6923076923076923,-2.0,0.11920291930437088,44.394283294677734,0.01
107,0.48598563307669107,0.8574125818971584,0.8894907908992417,-2.0,0.11920291930437088,44.07050323486328,0.01
108,0.5437222472051295,0.877957790907168,0.905742145178765,-2.0,0.11920291930437088,43.49918746948242,0.01
109,0.4937342537975893,0.90638969306506,0.9252437703141928,-2.0,0.11920291930437088,43.26985168457031,0.01
110,0.45650228458206826,0.8899769864863177,0.9133261105092091,-2.0,0.11920291930437088,42.89338302612305,0.01
111,0.6643779405006548,0.8636473665519517,0.8959913326110509,-2.0,0.11920291930437088,44.26290512084961,0.01
112,0.630307162680277,0.8708528787707263,0.9003250270855905,-2.0,0.11920291930437088,44.35024642944336,0.01
113,0.5410659947409863,0.5234806723592044,0.47670639219934996,-2.0,0.11920291930437088,44.01779556274414,0.01
114,3.161116771581696,0.6822527372170188,0.7800650054171181,-2.0,0.11920291930437088,56.350372314453125,0.01
115,0.6898879939463081,0.9053587746052486,0.9241603466955579,-2.0,0.11920291930437088,53.385467529296875,0.01
116,0.6382267126222936,0.7664225825906188,0.7963163596966414,-2.0,0.11920291930437088,51.106021881103516,0.01
117,0.4800712153678987,0.9149740215985463,0.9328277356446371,-2.0,0.11920291930437088,48.90304183959961,0.01
118,0.4940163987438853,0.8314470317283839,0.856988082340195,-2.0,0.11920291930437088,47.11640548706055,0.01
119,0.415831727589049,0.9105940089788241,0.9263271939328277,-2.0,0.11920291930437088,45.58824920654297,0.01
120,0.4886787433813258,0.8827194605398757,0.9100758396533044,-2.0,0.11920291930437088,44.93735122680664,0.01
121,0.6145426421994116,0.8314410732005413,0.8786565547128927,-2.0,0.11920291930437088,44.71071243286133,0.01
122,0.47815145806568427,0.8023804387408301,0.8309859154929577,-2.0,0.11920291930437088,44.15414810180664,0.01
123,0.4564254943553994,0.9246764572982332,0.9382448537378115,-2.0,0.11920291930437088,43.38205337524414,0.01
124,0.5684372021294222,0.867841808660223,0.9068255687973997,-2.0,0.11920291930437088,43.14798355102539,0.01
125,0.432402425786344,0.8946787769253965,0.9100758396533044,-2.0,0.11920291930437088,42.74459457397461,0.01
126,2.1494970881357425,0.8292423733685125,0.8537378114842904,-2.0,0.11920291930437088,49.10581970214844,0.01
127,0.6115026212320095,0.8097533245996367,0.8342361863488624,-2.0,0.11920291930437088,47.67853546142578,0.01
128,1.1068980900979624,0.820599926418536,0.8602383531960996,-2.0,0.11920291930437088,48.4116096496582,0.01
129,1.2086371670408946,0.8775885936679785,0.905742145178765,-2.0,0.11920291930437088,50.91350173950195,0.01
130,0.5016536236536212,0.8889926657070705,0.9068255687973997,-2.0,0.11920291930437088,48.678340911865234,0.01
131,0.4281564798296952,0.7936032917510067,0.8255687973997833,-2.0,0.11920291930437088,46.60073471069336,0.01
132,0.4888517560391891,0.76046928041982,0.8158179848320694,-2.0,0.11920291930437088,45.443424224853516,0.01
133,0.7915964566352891,0.9072138441720912,0.9241603466955579,-2.0,0.11920291930437088,47.4498291015625,0.01
134,0.4264053284395032,0.8600988845720361,0.8775731310942578,-2.0,0.11920291930437088,45.80659866333008,0.01
135,0.4144372187736558,0.8389967716003222,0.8548212351029253,-2.0,0.11920291930437088,44.62081527709961,0.01
136,1.1803458572887793,0.722693697510133,0.7973997833152763,-2.0,0.11920291930437088,47.5994758605957,0.01
137,0.6989107404540225,0.8697968989361995,0.905742145178765,-2.0,0.11920291930437088,48.00070571899414,0.01
138,0.4433620953705253,0.7853781716638981,0.866738894907909,-2.0,0.11920291930437088,46.269615173339844,0.01
139,0.5015626896808787,0.8915970486865268,0.9165763813651138,-2.0,0.11920291930437088,45.34418487548828,0.01
140,0.5736044712546395,0.9000767461665331,0.9187432286023836,-2.0,0.11920291930437088,44.985595703125,0.01
141,0.6154299432911524,0.858198848436596,0.8959913326110509,-2.0,0.11920291930437088,45.58885192871094,0.01
142,0.608020647088202,0.9190139931668172,0.9349945828819068,-2.0,0.11920291930437088,45.76445770263672,0.01
143,0.7577118204861153,0.8356509976055897,0.8786565547128927,-2.0,0.11920291930437088,46.44886779785156,0.01
144,0.47536564200389675,0.8598114218853704,0.8916576381365113,-2.0,0.11920291930437088,45.57860565185547,0.01
145,0.7986403483806587,0.5864915865194531,0.5655471289274107,-2.0,0.11920291930437088,46.53874588012695,0.01
146,0.6795933093966507,0.8987697872556852,0.9209100758396533,-2.0,0.11920291930437088,47.731197357177734,0.01
147,0.9071795031791781,0.8323512743083681,0.8699891657638137,-2.0,0.11920291930437088,48.00390625,0.01
148,0.9475103758457231,0.8132026037421731,0.8580715059588299,-2.0,0.11920291930437088,48.582820892333984,0.01
149,1.0439271846922433,0.8811258453289208,0.9014084507042254,-2.0,0.11920291930437088,49.66023635864258,0.01
150,0.4446827133254307,0.8031379638886254,0.8201516793066089,-2.0,0.11920291930437088,47.596134185791016,0.01
151,0.9449231410171928,0.848250836956951,0.8938244853737811,-2.0,0.11920291930437088,49.248714447021484,0.01
152,0.4924922923489315,0.893906843410748,0.9122426868905742,-2.0,0.11920291930437088,47.66752624511719,0.01
153,0.41485835993435327,0.9065606923058143,0.9284940411700975,-2.0,0.11920291930437088,46.0106315612793,0.01
154,0.33620929681673284,0.8889380194281493,0.905742145178765,-2.0,0.11920291930437088,44.38023376464844,0.01
155,0.39974224858167695,0.568522600617466,0.6706392199349945,-2.0,0.11920291930437088,43.2219123840332,0.01
156,1.4073662990477027,0.9168394170371187,0.933911159263272,-2.0,0.11920291930437088,47.94953536987305,0.01
157,0.7244475353054884,0.7903836688882955,0.866738894907909,-2.0,0.11920291930437088,47.689022064208984,0.01
158,0.66409005133844,0.8913349512275583,0.9165763813651138,-2.0,0.11920291930437088,47.66474151611328,0.01
159,0.5579747824770648,0.8084200984626128,0.8602383531960996,-2.0,0.11920291930437088,46.74517059326172,0.01
160,0.4731167600285716,0.8602712455505953,0.8819068255687974,-2.0,0.11920291930437088,45.89957046508789,0.01
161,0.5189720755670129,0.8785245687463116,0.9089924160346695,-2.0,0.11920291930437088,45.85878372192383,0.01
162,0.5933640421163745,0.8061952806817893,0.8450704225352113,-2.0,0.11920291930437088,46.0758056640625,0.01
163,0.7926313302865843,0.8608564644245792,0.9003250270855905,-2.0,0.11920291930437088,47.28968811035156,0.01
164,0.5783335691908511,0.9008135693407958,0.9230769230769231,-2.0,0.11920291930437088,46.38629150390625,0.01
165,0.3574369909559808,0.8430096003950022,0.8829902491874323,-2.0,0.11920291930437088,44.51029968261719,0.01
166,1.905127556949127,0.8601266023823932,0.8916576381365113,-2.0,0.11920291930437088,51.40327072143555,0.01
167,0.7983379254980785,0.9150324378658669,0.9317443120260022,-2.0,0.11920291930437088,50.22408676147461,0.01
168,0.5847860113149737,0.8707746645100721,0.8927410617551462,-2.0,0.11920291930437088,48.75289535522461,0.01
169,0.40915797832535533,0.8976558282579976,0.9133261105092091,-2.0,0.11920291930437088,46.93932342529297,0.01
170,0.3947460487848375,0.8481518182586152,0.886240520043337,-2.0,0.11920291930437088,45.306156158447266,0.01
171,0.47311115973606344,0.8167624374977611,0.8234019501625135,-2.0,0.11920291930437088,44.95783615112305,0.01
172,0.5722975225710287,0.7561943560376798,0.7887323943661971,-2.0,0.11920291930437088,44.95029830932617,0.01
173,0.9947585409007421,0.6447135701901131,0.781148429035753,-2.0,0.11920291930437088,46.83112716674805,0.01
174,1.369839921593666,0.8438462812742487,0.8808234019501625,-2.0,0.11920291930437088,50.94883728027344,0.01
175,0.5581568032503128,0.9124582893051955,0.9274106175514626,-2.0,0.11920291930437088,49.565155029296875,0.01
176,0.42694558530319027,0.8679612643337326,0.8981581798483207,-2.0,0.11920291930437088,47.293724060058594,0.01
177,0.8915449940576786,0.7055400705232439,0.7843986998916577,-2.0,0.11920291930437088,49.436397552490234,0.01
178,0.7070039645200823,0.807045631233569,0.8591549295774648,-2.0,0.11920291930437088,49.38330841064453,0.01
179,0.42858154635603835,0.852272574035565,0.8721560130010835,-2.0,0.11920291930437088,47.5582275390625,0.01
180,0.5586342404528362,0.8762654876719292,0.9014084507042254,-2.0,0.11920291930437088,46.73544692993164,0.01
181,0.5303141325712204,0.9072985401611529,0.9295774647887324,-2.0,0.11920291930437088,46.16077423095703,0.01
182,0.8404111020812174,0.802810642943367,0.828819068255688,-2.0,0.11920291930437088,47.14690399169922,0.01
183,0.5812309137204799,0.9136973378674336,0.9317443120260022,-2.0,0.11920291930437088,47.437599182128906,0.01
184,0.5712086285759763,0.8496533317181978,0.8699891657638137,-2.0,0.11920291930437088,47.176963806152344,0.01
185,0.4657043240419248,0.9041613383012317,0.9198266522210184,-2.0,0.11920291930437088,46.15582275390625,0.01
186,0.4782320633530617,0.8668279455959451,0.9014084507042254,-2.0,0.11920291930437088,45.470611572265625,0.01
187,0.5267764816923839,0.8887150427925647,0.9133261105092091,-2.0,0.11920291930437088,45.30007553100586,0.01
188,0.33062768545819493,0.9233531881341225,0.9382448537378115,-2.0,0.11920291930437088,43.664520263671875,0.01
189,0.4903365895152092,0.6702249244343588,0.8169014084507042,-2.0,0.11920291930437088,43.533443450927734,0.01
190,0.6900345292396661,0.7366189010194947,0.7919826652221018,-2.0,0.11920291930437088,45.23891067504883,0.01
191,0.5813953869226502,0.8753051039898322,0.905742145178765,-2.0,0.11920291930437088,45.51071548461914,0.01
192,0.5405336731090779,0.8900297728619613,0.9176598049837487,-2.0,0.11920291930437088,45.26507568359375,0.01
193,1.8556013403505813,0.8037947275737182,0.8418201516793066,-2.0,0.11920291930437088,50.82186508178711,0.01
194,0.8425841676752742,0.8209396658349192,0.8613217768147345,-2.0,0.11920291930437088,50.89476013183594,0.01
195,0.8641536613790001,0.9001069852696855,0.9198266522210184,-2.0,0.11920291930437088,51.2656135559082,0.01
196,0.6097957742650334,0.8572067831531118,0.8873239436619719,-2.0,0.11920291930437088,49.94611740112305,0.01
197,0.45769462498222907,0.7804027905785623,0.8114842903575298,-2.0,0.11920291930437088,48.0551872253418,0.01
198,0.46517575514025805,0.9076071189987275,0.9263271939328277,-2.0,0.11920291930437088,46.803279876708984,0.01
199,0.6947755308412924,0.8718639998230813,0.9014084507042254,-2.0,0.11920291930437088,47.370635986328125,0.01
200,0.5518648649861173,0.9129949457007385,0.9317443120260022,-2.0,0.11920291930437088,47.352783203125,0.01
201,0.4836401147086446,0.8019623249019429,0.8645720476706392,-2.0,0.11920291930437088,45.99382019042969,0.01
202,0.9274427132999025,0.463875556995748,0.6522210184182016,-2.0,0.11920291930437088,47.941009521484375,0.01
203,0.8478482532791976,0.8938818280982289,0.9089924160346695,-2.0,0.11920291930437088,49.131404876708984,0.01
204,0.4815219233675701,0.9019546714303475,0.9209100758396533,-2.0,0.11920291930437088,47.509891510009766,0.01
205,0.7409992054468248,0.7932208041209552,0.8450704225352113,-2.0,0.11920291930437088,47.11033248901367,0.01
206,0.6692526892917913,0.9085313529780127,0.9252437703141928,-2.0,0.11920291930437088,47.053863525390625,0.01
207,0.39381545872949975,0.9142515749156533,0.933911159263272,-2.0,0.11920291930437088,45.654483795166016,0.01
208,0.5060435726148326,0.8400650197780459,0.8537378114842904,-2.0,0.11920291930437088,45.28566360473633,0.01
209,2.5607219167598863,0.7304431730383826,0.8169014084507042,-2.0,0.11920291930437088,51.69868850708008,0.01
210,1.371060658518861,0.8825422643247138,0.9003250270855905,-2.0,0.11920291930437088,54.76955032348633,0.01
211,0.5328078193635475,0.880466292214105,0.9100758396533044,-2.0,0.11920291930437088,51.7094841003418,0.01
212,0.618640282168621,0.8647657787113052,0.8927410617551462,-2.0,0.11920291930437088,50.44626235961914,0.01
213,0.555821031332016,0.8117165980168638,0.8710725893824486,-2.0,0.11920291930437088,49.58982467651367,0.01
214,0.5247607645465107,0.907532336574232,0.9306608884073673,-2.0,0.11920291930437088,48.469078063964844,0.01
215,0.508768193787191,0.6975237576920787,0.819068255687974,-2.0,0.11920291930437088,47.476654052734375,0.01
216,0.827265063073577,0.9066436132275341,0.9263271939328277,-2.0,0.11920291930437088,48.950557708740234,0.01
217,1.1154765642997695,0.8718931842622555,0.9035752979414952,-2.0,0.11920291930437088,52.028778076171875,0.01
218,0.7334994931773442,0.9072080207631211,0.9274106175514626,-2.0,0.11920291930437088,51.16670227050781,0.01
219,0.46978806468044837,0.8493390004867221,0.8873239436619719,-2.0,0.11920291930437088,49.300716400146484,0.01
220,0.4195844432929667,0.835074089380073,0.8580715059588299,-2.0,0.11920291930437088,47.77678680419922,0.01
221,0.6791810100761856,0.8048437050004166,0.8699891657638137,-2.0,0.11920291930437088,47.787357330322266,0.01
222,0.601524037195415,0.9188544734628925,0.9360780065005417,-2.0,0.11920291930437088,47.070533752441406,0.01
223,0.402723173724442,0.7508397782478745,0.7876489707475623,-2.0,0.11920291930437088,45.73613739013672,0.01
224,0.5869770211780944,0.8428157631789308,0.886240520043337,-2.0,0.11920291930437088,45.72133255004883,0.01
225,0.6819378693656224,0.9133458615355685,0.9306608884073673,-2.0,0.11920291930437088,46.50518035888672,0.01
226,0.4474473381187858,0.9008208513563305,0.9241603466955579,-2.0,0.11920291930437088,45.93830108642578,0.01
227,0.44914750482251004,0.9121987185375188,0.9295774647887324,-2.0,0.11920291930437088,45.17390441894531,0.01
228,0.4032962563924673,0.9029100510012691,0.9241603466955579,-2.0,0.11920291930437088,44.2969856262207,0.01
229,0.5047410063263846,0.8981368061028814,0.9198266522210184,-2.0,0.11920291930437088,44.21673583984375,0.01
230,0.3334838175555555,0.8679097854162213,0.894907908992416,-2.0,0.11920291930437088,43.11769104003906,0.01
231,0.38524924200482485,0.8687502521153092,0.8981581798483207,-2.0,0.11920291930437088,42.69652557373047,0.01
232,0.5017687714681393,0.7162626300292959,0.8179848320693391,-2.0,0.11920291930437088,42.2593994140625,0.01
233,1.581108924455759,0.9046298133110975,0.9209100758396533,-2.0,0.11920291930437088,47.95045852661133,0.01
234,0.5221003335787029,0.903145198240401,0.9198266522210184,-2.0,0.11920291930437088,46.93755340576172,0.01
235,0.48803611408646513,0.8636416481072914,0.8959913326110509,-2.0,0.11920291930437088,46.2782096862793,0.01
236,0.6382240547639567,0.8535825950722298,0.8840736728060672,-2.0,0.11920291930437088,46.07062530517578,0.01
237,0.5746744038855157,0.8771345834468907,0.90465872156013,-2.0,0.11920291930437088,45.97797393798828,0.01
238,1.1927727971498558,0.5807351197923645,0.6944745395449621,-2.0,0.11920291930437088,48.424713134765625,0.01
239,0.7422441574858456,0.8754114524498323,0.9035752979414952,-2.0,0.11920291930437088,49.141517639160156,0.01
