epoch,train_loss,val_macro_f1,val_accuracy,theta,w,w_norm,lr
0,7.69231483049509,0.541383023063704,0.6619718309859155,-2.0,0.11920291930437088,6.9166059494018555,0.01
1,1.0457414821153734,0.4539572094677694,0.6608884073672806,-2.0,0.11920291930437088,9.530020713806152,0.01
2,1.1289646821777994,0.6454563189960282,0.7399783315276273,-2.0,0.11920291930437088,12.557001113891602,0.01
3,0.9069545330797754,0.5433195251725985,0.6944745395449621,-2.0,0.11920291930437088,14.303500175476074,0.01
4,0.8868404863084235,0.613745102975578,0.7508125677139762,-2.0,0.11920291930437088,15.772208213806152,0.01
5,1.082330469678088,0.7640776559356113,0.8104008667388949,-2.0,0.11920291930437088,17.538311004638672,0.01
6,0.8484812956757661,0.8045382575948248,0.8439869989165764,-2.0,0.11920291930437088,18.633211135864258,0.01
7,0.860111110094117,0.6677409734858359,0.7648970747562297,-2.0,0.11920291930437088,19.661659240722656,0.01
8,0.8924077222260033,0.7307749722801133,0.8104008667388949,-2.0,0.11920291930437088,20.930452346801758,0.01
9,0.8697474958693109,0.5976765066976816,0.7302275189599133,-2.0,0.11920291930437088,21.796268463134766,0.01
10,0.9225459018858467,0.8041198721302795,0.8396533044420368,-2.0,0.11920291930437088,22.75823402404785,0.01
11,0.7914314811549535,0.649080832070329,0.7789815817984832,-2.0,0.11920291930437088,23.16590690612793,0.01
12,1.3244987911567456,0.6473186628246657,0.7638136511375948,-2.0,0.11920291930437088,24.997896194458008,0.01
13,1.0548823915603684,0.5951325422799165,0.6738894907908992,-2.0,0.11920291930437088,25.772445678710938,0.01
14,0.7370526990512523,0.7117203180444458,0.771397616468039,-2.0,0.11920291930437088,25.97513198852539,0.01
15,0.5725171816785161,0.7490177231748826,0.8201516793066089,-2.0,0.11920291930437088,25.534921646118164,0.01
16,0.5517061163739461,0.7918667963072303,0.847237269772481,-2.0,0.11920291930437088,25.07103157043457,0.01
17,1.3887527152532484,0.46579405591577105,0.6901408450704225,-2.0,0.11920291930437088,26.430957794189453,0.01
18,1.2244640537878362,0.7408496652808202,0.8104008667388949,-2.0,0.11920291930437088,27.666107177734375,0.01
19,1.0020877649871314,0.8133078735166647,0.847237269772481,-2.0,0.11920291930437088,28.22694969177246,0.01
20,0.5722732060566181,0.597872640676923,0.6803900325027086,-2.0,0.11920291930437088,27.623943328857422,0.01
21,0.8262436393557525,0.6777614192330838,0.7367280606717227,-2.0,0.11920291930437088,28.08344078063965,0.01
22,0.7256743046568661,0.7079515827178415,0.7432286023835319,-2.0,0.11920291930437088,28.092557907104492,0.01
23,0.5888785901592999,0.6702036664337807,0.7399783315276273,-2.0,0.11920291930437088,27.675891876220703,0.01
24,0.7166823733870576,0.7551622214953646,0.8266522210184182,-2.0,0.11920291930437088,27.878372192382812,0.01
25,0.7804049413378645,0.6013268102783389,0.685807150595883,-2.0,0.11920291930437088,28.15390396118164,0.01
26,1.0983930793477268,0.8165466102783409,0.8418201516793066,-2.0,0.11920291930437088,29.143115997314453,0.01
27,0.5850648109505816,0.8360183015542203,0.8710725893824486,-2.0,0.11920291930437088,28.691505432128906,0.01
28,0.8530327959395037,0.4654443028056871,0.6717226435536294,-2.0,0.11920291930437088,29.195310592651367,0.01
29,1.226842224597931,0.6928080616068648,0.7269772481040087,-2.0,0.11920291930437088,30.802705764770508,0.01
30,0.8703627070275749,0.712836762246077,0.7995666305525461,-2.0,0.11920291930437088,30.474327087402344,0.01
31,1.0316767274606518,0.5838816356204233,0.7345612134344529,-2.0,0.11920291930437088,30.935029983520508,0.01
32,2.2399422875264796,0.6652410945094571,0.6998916576381365,-2.0,0.11920291930437088,34.11907196044922,0.01
33,1.2175405116342917,0.7414521570867825,0.8125677139761647,-2.0,0.11920291930437088,34.188968658447266,0.01
34,0.7616389989852905,0.8493950334903942,0.886240520043337,-2.0,0.11920291930437088,33.45376205444336,0.01
35,0.5980328615845704,0.869515904993785,0.8970747562296858,-2.0,0.11920291930437088,32.86335754394531,0.01
36,0.5991048107786876,0.8109015059015059,0.8266522210184182,-2.0,0.11920291930437088,32.55628967285156,0.01
37,0.8783536197208777,0.78351605410201,0.8299024918743229,-2.0,0.11920291930437088,32.66328811645508,0.01
38,0.7284304483271227,0.705939859572411,0.7930660888407367,-2.0,0.11920291930437088,32.410011291503906,0.01
39,0.672376118418647,0.7371997058343658,0.8158179848320694,-2.0,0.11920291930437088,32.20920944213867,0.01
40,0.6089131786692433,0.8046122058976735,0.8526543878656555,-2.0,0.11920291930437088,31.9608211517334,0.01
41,0.7048103424107156,0.8254068610682994,0.8634886240520043,-2.0,0.11920291930437088,32.19013595581055,0.01
42,0.7689775539244094,0.6336810265179268,0.6262188515709642,-2.0,0.11920291930437088,32.24858474731445,0.01
43,0.9536401069745785,0.8019070795724312,0.828819068255688,-2.0,0.11920291930437088,32.905277252197266,0.01
44,0.5729568149985337,0.8214480316922703,0.8504875406283857,-2.0,0.11920291930437088,32.56082534790039,0.01
45,0.910771394648203,0.7467897392775011,0.8136511375947996,-2.0,0.11920291930437088,33.29829406738281,0.01
46,1.2324366645842064,0.4670033195642767,0.6359696641386782,-2.0,0.11920291930437088,34.6826057434082,0.01
47,1.1587156137315238,0.7752209893748095,0.8017334777898159,-2.0,0.11920291930437088,35.36884689331055,0.01
48,0.7207985024263219,0.7551507248725591,0.8082340195016251,-2.0,0.11920291930437088,34.86405563354492,0.01
49,0.6934667316878714,0.8788889205103558,0.9003250270855905,-2.0,0.11920291930437088,34.76643753051758,0.01
50,0.5206236552174498,0.8588905849893024,0.8938244853737811,-2.0,0.11920291930437088,34.05083465576172,0.01
51,0.5656970895645095,0.8605158591184141,0.8905742145178764,-2.0,0.11920291930437088,33.680755615234375,0.01
52,0.6232448665470611,0.8023978521624328,0.8537378114842904,-2.0,0.11920291930437088,33.39712142944336,0.01
53,1.4724877738371127,0.7387940084060981,0.8104008667388949,-2.0,0.11920291930437088,35.086673736572266,0.01
54,0.9460861588396677,0.6330848855200317,0.6879739978331527,-2.0,0.11920291930437088,35.86525344848633,0.01
55,0.5759918468027581,0.8530092809182245,0.8894907908992417,-2.0,0.11920291930437088,35.12227249145508,0.01
56,0.5494608215805961,0.8311540064868692,0.8645720476706392,-2.0,0.11920291930437088,34.648033142089844,0.01
57,0.5137738952549492,0.8677756662787667,0.8927410617551462,-2.0,0.11920291930437088,34.16071319580078,0.01
58,0.6973266857789784,0.8229136588867014,0.8613217768147345,-2.0,0.11920291930437088,34.404415130615234,0.01
59,2.147779355688793,0.676907632864329,0.7757313109425785,-2.0,0.11920291930437088,37.36428451538086,0.01
60,1.0788921593892864,0.8298027828043304,0.8559046587215602,-2.0,0.11920291930437088,38.08983612060547,0.01
61,1.0652015917911761,0.7132312932918696,0.8158179848320694,-2.0,0.11920291930437088,38.22043991088867,0.01
62,0.7206784235994991,0.6001938072526307,0.7573131094257854,-2.0,0.11920291930437088,37.9260139465332,0.01
63,0.778711653337246,0.6844323752853426,0.8158179848320694,-2.0,0.11920291930437088,37.54078674316406,0.01
64,0.8840141892433167,0.6649308479721988,0.7453954496208017,-2.0,0.11920291930437088,37.62350082397461,0.01
65,0.6406921936971385,0.8116889691035107,0.8353196099674973,-2.0,0.11920291930437088,37.2139892578125,0.01
66,0.6690868161073545,0.7329497944302409,0.8266522210184182,-2.0,0.11920291930437088,36.99172592163086,0.01
67,0.8656280393280634,0.849160389208523,0.8808234019501625,-2.0,0.11920291930437088,37.22914505004883,0.01
68,0.579090745710745,0.8565798659210675,0.8905742145178764,-2.0,0.11920291930437088,36.75877380371094,0.01
69,0.6647597725798444,0.7795320351206794,0.8450704225352113,-2.0,0.11920291930437088,36.585052490234375,0.01
70,1.4553325496068814,0.7927168009433039,0.8255687973997833,-2.0,0.11920291930437088,37.74653625488281,0.01
71,0.6928745844378704,0.8820591063635724,0.9089924160346695,-2.0,0.11920291930437088,37.335811614990234,0.01
72,0.8608885483770836,0.7889522044348061,0.8439869989165764,-2.0,0.11920291930437088,37.34225082397461,0.01
73,1.1455657071456677,0.8635425054141719,0.894907908992416,-2.0,0.11920291930437088,37.84038543701172,0.01
74,0.5205379311994809,0.8872851408615396,0.9122426868905742,-2.0,0.11920291930437088,37.13494110107422,0.01
75,0.5319914625185292,0.6679870971087286,0.7226435536294691,-2.0,0.11920291930437088,36.672874450683594,0.01
76,1.1566643038900888,0.8721234072661941,0.9014084507042254,-2.0,0.11920291930437088,37.94377899169922,0.01
77,0.7336309950162725,0.7165040650406505,0.7475622968580715,-2.0,0.11920291930437088,37.77272033691406,0.01
78,0.6309475776989285,0.854650850138771,0.8873239436619719,-2.0,0.11920291930437088,37.47123718261719,0.01
79,0.7868809583710461,0.8591271754089315,0.8829902491874323,-2.0,0.11920291930437088,37.62440872192383,0.01
80,0.6358966296765862,0.8061752110964949,0.8580715059588299,-2.0,0.11920291930437088,37.32158279418945,0.01
81,1.4758411267908609,0.7078472256851989,0.7887323943661971,-2.0,0.11920291930437088,38.54365158081055,0.01
82,0.9622664357103953,0.8831156302007999,0.9089924160346695,-2.0,0.11920291930437088,38.650760650634766,0.01
83,0.7366659655803587,0.8813682914696713,0.9024918743228603,-2.0,0.11920291930437088,38.808746337890625,0.01
84,0.5147870426497808,0.8501586626175156,0.8797399783315276,-2.0,0.11920291930437088,38.19453811645508,0.01
85,0.7184990917037173,0.7223829909928179,0.8125677139761647,-2.0,0.11920291930437088,38.244693756103516,0.01
86,0.7274061219721306,0.6956243819749373,0.7399783315276273,-2.0,0.11920291930437088,38.18452072143555,0.01
87,1.080051773931922,0.8064805834209816,0.8450704225352113,-2.0,0.11920291930437088,38.72804641723633,0.01
88,0.9976333267078167,0.8468823397493257,0.8743228602383532,-2.0,0.11920291930437088,39.20357131958008,0.01
89,0.4903362533304749,0.8633984933926738,0.8884073672806068,-2.0,0.11920291930437088,38.55784606933594,0.01
90,0.5764416919612303,0.8502418608695661,0.8840736728060672,-2.0,0.11920291930437088,38.22893524169922,0.01
91,0.4958262786996074,0.8391989587898092,0.8613217768147345,-2.0,0.11920291930437088,37.8095703125,0.01
92,0.6555165797472,0.7789623961868143,0.8277356446370531,-2.0,0.11920291930437088,37.79909896850586,0.01
93,0.942446446636828,0.8346143397670526,0.866738894907909,-2.0,0.11920291930437088,38.517704010009766,0.01
94,0.7431581779951002,0.8603307970420726,0.8808234019501625,-2.0,0.11920291930437088,38.33379364013672,0.01
95,0.554810897969618,0.8943636521595633,0.9154929577464789,-2.0,0.11920291930437088,37.99814224243164,0.01
96,0.6768684845145155,0.755507190988469,0.8309859154929577,-2.0,0.11920291930437088,38.04730987548828,0.01
97,0.7210756351308125,0.7485515344779261,0.7475622968580715,-2.0,0.11920291930437088,38.349876403808594,0.01
98,1.0163940714626778,0.8336147262604344,0.8710725893824486,-2.0,0.11920291930437088,38.98823547363281,0.01
99,0.7365591048104007,0.8791551835857684,0.905742145178765,-2.0,0.11920291930437088,38.94568634033203,0.01
100,0.5526166592792767,0.7758451715653178,0.8353196099674973,-2.0,0.11920291930437088,38.464256286621094,0.01
101,1.0057992066552,0.8000907838564025,0.828819068255688,-2.0,0.11920291930437088,39.057857513427734,0.01
102,0.5617768938948469,0.7526767640854454,0.7941495124593716,-2.0,0.11920291930437088,38.58120346069336,0.01
103,0.86369347245228,0.5558472713311169,0.7313109425785482,-2.0,0.11920291930437088,38.4951057434082,0.01
104,0.9408340025238875,0.6884217190936124,0.6619718309859155,-2.0,0.11920291930437088,38.84585189819336,0.01
105,1.7342152631864316,0.8117606676294777,0.8613217768147345,-2.0,0.11920291930437088,40.75914001464844,0.01
106,0.6979589705787054,0.731531769355476,0.7768147345612134,-2.0,0.11920291930437088,40.21316909790039,0.01
107,0.8030909099956838,0.8650745245735735,0.8894907908992417,-2.0,0.11920291930437088,40.06932067871094,0.01
108,0.5079827882894655,0.7765694725944465,0.7941495124593716,-2.0,0.11920291930437088,39.637821197509766,0.01
109,0.4864384582856806,0.8913702097616252,0.9133261105092091,-2.0,0.11920291930437088,39.189308166503906,0.01
110,0.9089618666869838,0.8050841895146463,0.8439869989165764,-2.0,0.11920291930437088,39.5172004699707,0.01
111,0.6903969289326086,0.8584834198742751,0.8905742145178764,-2.0,0.11920291930437088,39.47572326660156,0.01
112,0.5427933066356473,0.8716685238395723,0.8992416034669556,-2.0,0.11920291930437088,39.1321907043457,0.01
113,0.7346009875579578,0.8990377488322208,0.9219934994582882,-2.0,0.11920291930437088,39.226097106933594,0.01
114,0.7701887393870005,0.7112374451007674,0.7984832069339112,-2.0,0.11920291930437088,39.36152648925781,0.01
115,0.6600997791421123,0.8615961852553085,0.8959913326110509,-2.0,0.11920291930437088,39.32524490356445,0.01
116,0.5603328020107455,0.8961735682944587,0.9187432286023836,-2.0,0.11920291930437088,39.089027404785156,0.01
117,0.553801211278613,0.873521571243893,0.8959913326110509,-2.0,0.11920291930437088,38.77939224243164,0.01
118,0.680209492401379,0.7686046562677621,0.8071505958829902,-2.0,0.11920291930437088,38.760337829589844,0.01
119,0.8922755167615123,0.7099258089754908,0.7735644637053087,-2.0,0.11920291930437088,39.534996032714844,0.01
120,0.596888385167936,0.7835941442861047,0.8114842903575298,-2.0,0.11920291930437088,39.341983795166016,0.01
121,1.0710594759481709,0.6446414607032744,0.7551462621885157,-2.0,0.11920291930437088,39.70371627807617,0.01
122,0.7848183712581309,0.7754564782082346,0.828819068255688,-2.0,0.11920291930437088,39.75274658203125,0.01
123,0.7765308098822106,0.6951254388087156,0.7453954496208017,-2.0,0.11920291930437088,39.79021072387695,0.01
124,0.9438596898462714,0.519456277524477,0.6663055254604551,-2.0,0.11920291930437088,40.121700286865234,0.01
125,0.8479615435367678,0.8022098178757349,0.8418201516793066,-2.0,0.11920291930437088,40.59206008911133,0.01
126,0.8588837963051912,0.7372411198887427,0.7573131094257854,-2.0,0.11920291930437088,40.54153060913086,0.01
127,0.6908710079222191,0.7829390848192388,0.8234019501625135,-2.0,0.11920291930437088,40.46233367919922,0.01
128,0.8116649469224418,0.882172351690231,0.9035752979414952,-2.0,0.11920291930437088,40.65457534790039,0.01
129,0.6426673971298265,0.800197988345208,0.8537378114842904,-2.0,0.11920291930437088,40.43775939941406,0.01
130,1.3025465433190508,0.7600548084936369,0.8461538461538461,-2.0,0.11920291930437088,41.50849533081055,0.01
131,0.6848975870667434,0.7372053654711418,0.7724810400866738,-2.0,0.11920291930437088,41.16807556152344,0.01
132,0.6629555828687621,0.8514027295869309,0.886240520043337,-2.0,0.11920291930437088,40.98398208618164,0.01
133,0.6127781282837798,0.8586678937064477,0.8981581798483207,-2.0,0.11920291930437088,40.67750930786133,0.01
134,0.4964001369549007,0.896346175540631,0.9176598049837487,-2.0,0.11920291930437088,40.28316116333008,0.01
135,1.0009055839079182,0.6068394537447734,0.7627302275189599,-2.0,0.11920291930437088,40.438926696777344,0.01
136,1.5110138305803624,0.8493600027802891,0.8884073672806068,-2.0,0.11920291930437088,41.8430061340332,0.01
137,0.9884999892333659,0.8816849708800392,0.9089924160346695,-2.0,0.11920291930437088,42.20682907104492,0.01
138,0.6476687338294053,0.7628037242378962,0.8169014084507042,-2.0,0.11920291930437088,41.7561149597168,0.01
139,0.6871065341117906,0.8390196908527845,0.8732394366197183,-2.0,0.11920291930437088,41.56929016113281,0.01
140,0.8116409102591072,0.7571267335934002,0.8223185265438786,-2.0,0.11920291930437088,41.41744613647461,0.01
141,0.9967655741223475,0.3742613910794167,0.5525460455037919,-2.0,0.11920291930437088,41.59730911254883,0.01
142,1.6482518140862628,0.7469791761775693,0.8320693391115926,-2.0,0.11920291930437088,43.122703552246094,0.01
143,0.8829173398454014,0.809777396095229,0.8483206933911159,-2.0,0.11920291930437088,43.02558517456055,0.01
144,0.5273043836762266,0.7411124626465008,0.7768147345612134,-2.0,0.11920291930437088,42.379947662353516,0.01
145,0.44695685404102975,0.858554824477882,0.8797399783315276,-2.0,0.11920291930437088,41.79033660888672,0.01
146,0.44066037764636484,0.8128227025665773,0.8721560130010835,-2.0,0.11920291930437088,41.289024353027344,0.01
147,0.6252062753206347,0.816543562894893,0.8710725893824486,-2.0,0.11920291930437088,40.978179931640625,0.01
148,0.8064552298406276,0.8903319941408749,0.9133261105092091,-2.0,0.11920291930437088,41.210147857666016,0.01
149,1.173958684976508,0.8189321784712986,0.8580715059588299,-2.0,0.11920291930437088,41.502342224121094,0.01
150,0.6334593997495931,0.8313425729397451,0.8526543878656555,-2.0,0.11920291930437088,41.26606369018555,0.01
151,0.9831124704058577,0.6054570062906579,0.752979414951246,-2.0,0.11920291930437088,41.81085968017578,0.01
152,1.0095542558446162,0.8837329091085386,0.9068255687973997,-2.0,0.11920291930437088,42.581459045410156,0.01
153,0.566993261619312,0.8029680774593565,0.8277356446370531,-2.0,0.11920291930437088,42.02306365966797,0.01
154,0.6374503007022346,0.8007334786398383,0.8526543878656555,-2.0,0.11920291930437088,41.7960319519043,0.01
155,0.9209364271018563,0.794939942248708,0.8548212351029253,-2.0,0.11920291930437088,42.1149787902832,0.01
156,0.8194547193806346,0.8426683892311422,0.866738894907909,-2.0,0.11920291930437088,42.198944091796875,0.01
157,0.707110649928814,0.87460581406233,0.8959913326110509,-2.0,0.11920291930437088,42.162567138671875,0.01
158,0.7430504974795551,0.6575589679421515,0.6933911159263272,-2.0,0.11920291930437088,41.933380126953125,0.01
159,0.7537455122645308,0.8559916021902033,0.8884073672806068,-2.0,0.11920291930437088,42.18672561645508,0.01
160,0.5112768124516417,0.7612266588445051,0.8320693391115926,-2.0,0.11920291930437088,41.63362121582031,0.01
161,0.7429208810009608,0.8782172197797398,0.8981581798483207,-2.0,0.11920291930437088,41.591739654541016,0.01
162,0.6611243929804825,0.8663433199049564,0.9024918743228603,-2.0,0.11920291930437088,41.40098571777344,0.01
163,0.5778653151014956,0.793532610804713,0.8342361863488624,-2.0,0.11920291930437088,41.18697738647461,0.01
164,2.1798847095995413,0.6132436406289592,0.7573131094257854,-2.0,0.11920291930437088,42.681461334228516,0.01
165,0.9910281485900646,0.8813466532399385,0.9079089924160346,-2.0,0.11920291930437088,43.220462799072266,0.01
166,0.7102941278277374,0.8383196267255822,0.8634886240520043,-2.0,0.11920291930437088,42.794376373291016,0.01
167,0.8484455892225591,0.8298373218134518,0.8526543878656555,-2.0,0.11920291930437088,43.050392150878906,0.01
168,0.6057116113057951,0.7187192447993527,0.8114842903575298,-2.0,0.11920291930437088,42.762874603271484,0.01
169,0.7218178924990863,0.7057229885552692,0.7638136511375948,-2.0,0.11920291930437088,42.88447189331055,0.01
170,0.5884620421906797,0.7673175805864684,0.828819068255688,-2.0,0.11920291930437088,42.47544860839844,0.01
171,0.5175206028833622,0.8646439285299488,0.8829902491874323,-2.0,0.11920291930437088,42.053077697753906,0.01
172,0.8609088775588245,0.8784758370478647,0.905742145178765,-2.0,0.11920291930437088,42.24644088745117,0.01
173,0.5976707688192042,0.8906716845877641,0.9165763813651138,-2.0,0.11920291930437088,42.07828903198242,0.01
174,0.8516293411574712,0.8565722903398543,0.8840736728060672,-2.0,0.11920291930437088,42.34786605834961,0.01
175,0.7126582711935043,0.745875412200704,0.7800650054171181,-2.0,0.11920291930437088,42.223289489746094,0.01
176,0.6369894503093347,0.7114895926994432,0.8147345612134345,-2.0,0.11920291930437088,41.88740539550781,0.01
177,2.5578588000157985,0.6229366344388092,0.6933911159263272,-2.0,0.11920291930437088,44.78013610839844,0.01
178,0.775735154747963,0.7295112860582043,0.8136511375947996,-2.0,0.11920291930437088,44.42893981933594,0.01
179,0.624818396277544,0.8523897347949934,0.875406283856988,-2.0,0.11920291930437088,43.921138763427734,0.01
180,0.7061060587080513,0.663958202108476,0.7735644637053087,-2.0,0.11920291930437088,43.50077819824219,0.01
181,1.1451211171906168,0.5012287583069951,0.6392199349945829,-2.0,0.11920291930437088,43.70695495605469,0.01
182,0.7880245403545659,0.9037672402132761,0.9230769230769231,-2.0,0.11920291930437088,43.83964538574219,0.01
183,0.5898256837958242,0.8676471181855817,0.8981581798483207,-2.0,0.11920291930437088,43.40045928955078,0.01
184,0.651821106672287,0.8199543684837209,0.8494041170097508,-2.0,0.11920291930437088,43.147483825683594,0.01
185,1.0847218665407925,0.7667939725003305,0.800650054171181,-2.0,0.11920291930437088,43.831459045410156,0.01
186,0.8834414943689253,0.5233145013225079,0.7063921993499458,-2.0,0.11920291930437088,43.80545425415039,0.01
187,0.8963448688751314,0.7377300456484213,0.8158179848320694,-2.0,0.11920291930437088,43.76747131347656,0.01
188,0.5114284292226885,0.892098990582974,0.9133261105092091,-2.0,0.11920291930437088,43.40193176269531,0.01
189,0.6017274776609932,0.8032278847138035,0.8450704225352113,-2.0,0.11920291930437088,43.212371826171875,0.01
190,0.7682162832196165,0.8223147197939286,0.8678223185265439,-2.0,0.11920291930437088,43.16424560546875,0.01
191,0.8240156649816327,0.8936025375373395,0.9187432286023836,-2.0,0.11920291930437088,43.33518600463867,0.01
192,0.5031916390104991,0.8093874882747836,0.8699891657638137,-2.0,0.11920291930437088,42.849971771240234,0.01
193,1.0288562058675579,0.6654121486742414,0.6728060671722643,-2.0,0.11920291930437088,42.950443267822266,0.01
194,1.3980336240152034,0.772136787884775,0.8017334777898159,-2.0,0.11920291930437088,43.97507858276367,0.01
195,1.237088373884922,0.7729578848673627,0.7919826652221018,-2.0,0.11920291930437088,44.794837951660156,0.01
196,0.8336447426458684,0.8643436146983241,0.8916576381365113,-2.0,0.11920291930437088,44.5125732421875,0.01
197,0.5336101600309697,0.8127293104340734,0.838569880823402,-2.0,0.11920291930437088,43.903507232666016,0.01
198,0.9805421338575643,0.7378595593998163,0.761646803900325,-2.0,0.11920291930437088,44.23004913330078,0.01
199,0.7567277714246656,0.8033628346873162,0.856988082340195,-2.0,0.11920291930437088,44.24264907836914,0.01
200,0.5575570758523011,0.8711140018180823,0.8992416034669556,-2.0,0.11920291930437088,43.79737091064453,0.01
201,0.7965381875997637,0.8097324250396095,0.8710725893824486,-2.0,0.11920291930437088,43.64762878417969,0.01
202,0.753571381656135,0.8710664163786502,0.9003250270855905,-2.0,0.11920291930437088,43.845149993896484,0.01
203,0.6689145783098732,0.5836962044902323,0.7475622968580715,-2.0,0.11920291930437088,43.79390335083008,0.01
204,2.0931310559191356,0.8293228362407941,0.8689057421451788,-2.0,0.11920291930437088,45.78213119506836,0.01
205,0.7801487609380628,0.877073253822488,0.905742145178765,-2.0,0.11920291930437088,45.41863250732422,0.01
206,1.2138150890425938,0.6767796614966053,0.7215601300108342,-2.0,0.11920291930437088,45.73200607299805,0.01
207,0.7273938390539914,0.8274245738080482,0.8504875406283857,-2.0,0.11920291930437088,45.7537956237793,0.01
208,0.568104434667564,0.7923888986901433,0.8504875406283857,-2.0,0.11920291930437088,45.13901138305664,0.01
209,0.5919942572349455,0.8254784273092657,0.8602383531960996,-2.0,0.11920291930437088,44.75271987915039,0.01
210,0.6612808073802692,0.7869521356923843,0.8613217768147345,-2.0,0.11920291930437088,44.560916900634766,0.01
211,0.7698633310998358,0.7975389921045932,0.8559046587215602,-2.0,0.11920291930437088,44.47744369506836,0.01
212,0.6526397059603435,0.6645840793007336,0.7735644637053087,-2.0,0.11920291930437088,44.149261474609375,0.01
213,0.6812074536957392,0.8790864070328317,0.9089924160346695,-2.0,0.11920291930437088,44.138938903808594,0.01
214,0.6490351808507268,0.8093148793001834,0.8634886240520043,-2.0,0.11920291930437088,43.86768341064453,0.01
215,0.6647658013715977,0.8859440092187209,0.914409534127844,-2.0,0.11920291930437088,43.88579559326172,0.01
216,0.6229825194289045,0.8841456139137571,0.9068255687973997,-2.0,0.11920291930437088,43.815277099609375,0.01
217,0.7836988521058385,0.8839886784785351,0.9079089924160346,-2.0,0.11920291930437088,44.17250442504883,0.01
218,0.9780689801384763,0.8082525731456748,0.828819068255688,-2.0,0.11920291930437088,44.4828987121582,0.01
219,0.5724568385176543,0.7733689541467932,0.8104008667388949,-2.0,0.11920291930437088,44.12322235107422,0.01
220,1.383102066633178,0.5399365189513419,0.6944745395449621,-2.0,0.11920291930437088,44.857177734375,0.01
221,1.0248061796513999,0.8939287858016133,0.914409534127844,-2.0,0.11920291930437088,45.444942474365234,0.01
222,0.7512229724628169,0.8810327288429942,0.90465872156013,-2.0,0.11920291930437088,45.00333023071289,0.01
223,1.1102024145969531,0.7981838554761675,0.8201516793066089,-2.0,0.11920291930437088,45.270423889160156,0.01
224,0.7868161604898732,0.8531738316606117,0.8851570964247021,-2.0,0.11920291930437088,45.5459098815918,0.01
225,0.7252308929838786,0.7696691728577398,0.8039003250270856,-2.0,0.11920291930437088,45.54220199584961,0.01
226,0.7944566251301184,0.8240803618615425,0.8689057421451788,-2.0,0.11920291930437088,45.40359115600586,0.01
227,0.5984711883271613,0.8199994618685456,0.8689057421451788,-2.0,0.11920291930437088,44.9022102355957,0.01
228,1.0873881429433823,0.6407339386731679,0.7388949079089924,-2.0,0.11920291930437088,45.15599822998047,0.01
229,0.7639609269979524,0.8379223835791635,0.8819068255687974,-2.0,0.11920291930437088,45.271141052246094,0.01
230,0.5207507533998024,0.8525157151394719,0.8884073672806068,-2.0,0.11920291930437088,44.765106201171875,0.01
231,0.6530698007199822,0.87322596444764,0.8959913326110509,-2.0,0.11920291930437088,44.48711013793945,0.01
232,0.44759570298398416,0.8735668391553875,0.8981581798483207,-2.0,0.11920291930437088,43.978363037109375,0.01
233,0.47527887308742944,0.8640223919338054,0.8851570964247021,-2.0,0.11920291930437088,43.627933502197266,0.01
234,0.5415947996988529,0.870221238995077,0.8981581798483207,-2.0,0.11920291930437088,43.39852523803711,0.01
235,1.0027262228654652,0.7844002573474504,0.8212351029252438,-2.0,0.11920291930437088,43.730987548828125,0.01
236,0.73289077638126,0.8164528712103264,0.866738894907909,-2.0,0.11920291930437088,43.97152328491211,0.01
237,0.5696407298489314,0.8577820390075737,0.8916576381365113,-2.0,0.11920291930437088,43.656463623046875,0.01
238,1.0009938841912804,0.8584938682318797,0.8786565547128927,-2.0,0.11920291930437088,43.78843688964844,0.01
239,0.6183866545921419,0.7928946765971627,0.80931744312026,-2.0,0.11920291930437088,43.6794319152832,0.01
240,1.8345306174057285,0.6569718364824808,0.7930660888407367,-2.0,0.11920291930437088,45.68699264526367,0.01
241,1.177202639783301,0.8569710784567779,0.8905742145178764,-2.0,0.11920291930437088,45.83045196533203,0.01
242,0.6599416351172982,0.8350153810608993,0.8710725893824486,-2.0,0.11920291930437088,45.415428161621094,0.01
243,0.5926462764420161,0.8470335422550616,0.8797399783315276,-2.0,0.11920291930437088,45.01750564575195,0.01
244,1.042340832875996,0.8818277882940689,0.90465872156013,-2.0,0.11920291930437088,45.565616607666016,0.01
245,0.624888580746767,0.8037321254668905,0.8504875406283857,-2.0,0.11920291930437088,45.141502380371094,0.01
246,0.5537765956506496,0.8973800587544896,0.9198266522210184,-2.0,0.11920291930437088,44.76521301269531,0.01
247,0.5988584913131667,0.8097968950929809,0.8710725893824486,-2.0,0.11920291930437088,44.53095245361328,0.01
248,0.5207073841153121,0.8313475485968762,0.8559046587215602,-2.0,0.11920291930437088,44.22095489501953,0.01
249,0.9289225121823753,0.7476993279523525,0.7768147345612134,-2.0,0.11920291930437088,44.38187026977539,0.01
250,0.8385981077828059,0.7635357018723999,0.8028169014084507,-2.0,0.11920291930437088,44.66978073120117,0.01
251,1.1383235392774023,0.8537496602360916,0.8786565547128927,-2.0,0.11920291930437088,45.30062484741211,0.01
252,0.6821999782469215,0.8244017233930861,0.8526543878656555,-2.0,0.11920291930437088,45.22751235961914,0.01
253,0.5610315385388165,0.6616398568600534,0.7302275189599133,-2.0,0.11920291930437088,44.961334228515625,0.01
254,0.676132858162973,0.7391489759633939,0.8125677139761647,-2.0,0.11920291930437088,44.72313690185547,0.01
255,0.6513058157955728,0.6176491584299713,0.6706392199349945,-2.0,0.11920291930437088,44.51408386230469,0.01
256,0.5498525482125398,0.8857523560913257,0.9133261105092091,-2.0,0.11920291930437088,44.286373138427734,0.01
257,0.7182845616849457,0.8721406050257612,0.9003250270855905,-2.0,0.11920291930437088,44.18825149536133,0.01
258,0.9568222252334037,0.7882879457523865,0.866738894907909,-2.0,0.11920291930437088,44.47133255004883,0.01
259,0.7147450410738224,0.8787898627016266,0.9089924160346695,-2.0,0.11920291930437088,44.54671096801758,0.01
260,1.011216905422327,0.8801341824839657,0.9111592632719393,-2.0,0.11920291930437088,44.93106460571289,0.01
261,0.693940103962654,0.8186524545550016,0.8732394366197183,-2.0,0.11920291930437088,44.964881896972656,0.01
262,0.4837796030248084,0.7034294294859695,0.7822318526543879,-2.0,0.11920291930437088,44.48530197143555,0.01
263,0.8191459044450666,0.7262362092446979,0.8169014084507042,-2.0,0.11920291930437088,44.69562911987305,0.01
264,0.7376802432827834,0.8055389795017833,0.8515709642470206,-2.0,0.11920291930437088,44.989505767822266,0.01
265,0.536268107411338,0.8886542951343428,0.9111592632719393,-2.0,0.11920291930437088,44.68391418457031,0.01
266,0.6138327979459995,0.6731348894191562,0.7876489707475623,-2.0,0.11920291930437088,44.377655029296875,0.01
267,0.5987126267537838,0.884132309545036,0.9089924160346695,-2.0,0.11920291930437088,44.30899429321289,0.01
268,0.6647433435044637,0.8374643642195018,0.8591549295774648,-2.0,0.11920291930437088,44.264583587646484,0.01
269,0.8193042768937785,0.8844664164009204,0.9100758396533044,-2.0,0.11920291930437088,44.313934326171875,0.01
270,0.4702502779844331,0.9022275182935697,0.9209100758396533,-2.0,0.11920291930437088,43.962158203125,0.01
271,0.4492484847219979,0.7496109424761375,0.8125677139761647,-2.0,0.11920291930437088,43.56474685668945,0.01
272,1.5971315670304183,0.6829145447654346,0.7941495124593716,-2.0,0.11920291930437088,44.95582962036133,0.01
273,0.7244852345164229,0.7608899061674731,0.8028169014084507,-2.0,0.11920291930437088,44.763084411621094,0.01
274,0.6586541024650016,0.8934766073879779,0.9165763813651138,-2.0,0.11920291930437088,44.792869567871094,0.01
275,0.8444915817278188,0.6846355502492523,0.7356446370530878,-2.0,0.11920291930437088,44.968780517578125,0.01
276,0.6839990706705465,0.8064039014203852,0.8591549295774648,-2.0,0.11920291930437088,44.81221008300781,0.01
277,0.7170634509586706,0.6737759075017428,0.7746478873239436,-2.0,0.11920291930437088,44.75558853149414,0.01
278,0.8289899982330275,0.8297102751894488,0.875406283856988,-2.0,0.11920291930437088,44.95409393310547,0.01
279,0.7933865393080363,0.8808181157234275,0.9079089924160346,-2.0,0.11920291930437088,44.80039978027344,0.01
280,0.6219457082632112,0.9042288493988828,0.9252437703141928,-2.0,0.11920291930437088,44.4809455871582,0.01
281,0.5365079942999816,0.8503785968005563,0.8829902491874323,-2.0,0.11920291930437088,44.28068161010742,0.01
282,1.9499935302429083,0.6337940905030249,0.7540628385698809,-2.0,0.11920291930437088,45.653114318847656,0.01
283,0.8624230190748121,0.5965878621049862,0.7518959913326111,-2.0,0.11920291930437088,45.80445098876953,0.01
284,0.7555590435499098,0.8378259358217699,0.8829902491874323,-2.0,0.11920291930437088,45.79926681518555,0.01
285,0.8502764440164333,0.7845949200497835,0.847237269772481,-2.0,0.11920291930437088,45.62162399291992,0.01
286,0.7019346007486669,0.7500556285904374,0.7843986998916577,-2.0,0.11920291930437088,45.59362030029297,0.01
287,0.8020927277280063,0.6345518254547029,0.7161430119176598,-2.0,0.11920291930437088,45.50752639770508,0.01
288,0.8062082176528326,0.6726838258236775,0.7248104008667389,-2.0,0.11920291930437088,45.733924865722656,0.01
289,0.7221681326627731,0.8961361841996469,0.9198266522210184,-2.0,0.11920291930437088,45.40804672241211,0.01
290,0.420243320305173,0.8079677349698027,0.8320693391115926,-2.0,0.11920291930437088,44.864280700683594,0.01
291,0.9069331401005024,0.66656731087173,0.7226435536294691,-2.0,0.11920291930437088,45.20319747924805,0.01
292,0.8461018720778023,0.8468852008653656,0.8927410617551462,-2.0,0.11920291930437088,45.41230773925781,0.01
293,0.582578508410512,0.8935586321937328,0.9122426868905742,-2.0,0.11920291930437088,45.082027435302734,0.01
294,0.8081542082676073,0.8491415862837025,0.8851570964247021,-2.0,0.11920291930437088,45.15918731689453,0.01
295,0.7859011815815438,0.8787739244295081,0.9024918743228603,-2.0,0.11920291930437088,45.384788513183594,0.01
296,0.4860987506988572,0.8521793088233028,0.8851570964247021,-2.0,0.11920291930437088,44.95368576049805,0.01
297,0.6656112529155684,0.8976070297946543,0.9187432286023836,-2.0,0.11920291930437088,44.87980651855469,0.01
298,0.655330958162866,0.6155809879724808,0.7670639219934995,-2.0,0.11920291930437088,44.68413543701172,0.01
299,0.8305499266560484,0.7703284521900848,0.7973997833152763,-2.0,0.11920291930437088,44.79294967651367,0.01
300,1.0649159757829294,0.8532482743158896,0.8840736728060672,-2.0,0.11920291930437088,45.16798400878906,0.01
301,0.44928292584855384,0.8706460568277843,0.9014084507042254,-2.0,0.11920291930437088,44.679595947265625,0.01
302,0.6708160869595481,0.8089327983215929,0.8515709642470206,-2.0,0.11920291930437088,44.70113754272461,0.01
303,1.4399198497213967,0.7384900329826866,0.8266522210184182,-2.0,0.11920291930437088,46.295631408691406,0.01
304,1.2999274807005394,0.5965302479260295,0.6771397616468039,-2.0,0.11920291930437088,46.79092025756836,0.01
305,0.7349519358902443,0.8450171062056222,0.8689057421451788,-2.0,0.11920291930437088,46.603302001953125,0.01
306,1.073020307029166,0.40321042117902256,0.6424702058504875,-2.0,0.11920291930437088,46.8988151550293,0.01
307,1.3362117100779602,0.8561000088413063,0.8819068255687974,-2.0,0.11920291930437088,47.692832946777344,0.01
308,0.778997556828871,0.8442806181120244,0.8894907908992417,-2.0,0.11920291930437088,47.29863739013672,0.01
309,0.6681001913256761,0.91193064700689,0.9295774647887324,-2.0,0.11920291930437088,46.8336181640625,0.01
310,0.5885860709155478,0.8532598224106408,0.8851570964247021,-2.0,0.11920291930437088,46.41084289550781,0.01
311,0.6263188879664351,0.8667489978960419,0.8959913326110509,-2.0,0.11920291930437088,46.20626449584961,0.01
312,0.5861453882804731,0.8480256304346604,0.8916576381365113,-2.0,0.11920291930437088,45.87773895263672,0.01
313,1.2641506696619638,0.7928628160595481,0.8429035752979415,-2.0,0.11920291930437088,46.54300308227539,0.01
314,0.5857931691698912,0.8931029882427841,0.9154929577464789,-2.0,0.11920291930437088,46.20610427856445,0.01
315,0.58262997756644,0.8465990031046712,0.8678223185265439,-2.0,0.11920291930437088,45.8807373046875,0.01
316,0.5153539831318507,0.8631670210759219,0.8884073672806068,-2.0,0.11920291930437088,45.513370513916016,0.01
317,0.8046165453951534,0.8535046030108926,0.8819068255687974,-2.0,0.11920291930437088,45.634037017822266,0.01
318,0.7429660860358215,0.85375831697527,0.8721560130010835,-2.0,0.11920291930437088,45.86256790161133,0.01
319,0.6475015289899779,0.7667150709017367,0.8223185265438786,-2.0,0.11920291930437088,45.62483596801758,0.01
320,0.5131210793809193,0.887285079099873,0.9079089924160346,-2.0,0.11920291930437088,45.36176681518555,0.01
321,1.0825629067130205,0.5616722789327624,0.7226435536294691,-2.0,0.11920291930437088,45.65934371948242,0.01
322,3.05700191782742,0.854153356708494,0.8894907908992417,-2.0,0.11920291930437088,48.272769927978516,0.01
323,0.5834294346774497,0.837816881376393,0.8851570964247021,-2.0,0.11920291930437088,47.431968688964844,0.01
324,0.6431653550485286,0.8697326938726103,0.8884073672806068,-2.0,0.11920291930437088,46.9565544128418,0.01
325,0.5612603847573443,0.8055025531699324,0.8396533044420368,-2.0,0.11920291930437088,46.53500747680664,0.01
326,0.5664848794297475,0.8442913004678129,0.8645720476706392,-2.0,0.11920291930437088,46.19466781616211,0.01
327,0.4917541197160395,0.9026506832283449,0.9187432286023836,-2.0,0.11920291930437088,45.81325912475586,0.01
328,0.7010922728151809,0.7450979301613417,0.7703141928494042,-2.0,0.11920291930437088,45.5932502746582,0.01
329,0.48981404449881577,0.8281958230462072,0.8580715059588299,-2.0,0.11920291930437088,45.309852600097656,0.01
330,0.5592799613752016,0.857752495770509,0.8884073672806068,-2.0,0.11920291930437088,45.19382095336914,0.01
331,1.5636912384411183,0.726831341473803,0.7735644637053087,-2.0,0.11920291930437088,46.09219741821289,0.01
332,1.3252636499521209,0.8319485946713501,0.8775731310942578,-2.0,0.11920291930437088,46.827545166015625,0.01
333,0.7092240176549772,0.7883288032368,0.8147345612134345,-2.0,0.11920291930437088,46.67430114746094,0.01
334,0.5268249846086269,0.900657282131856,0.9209100758396533,-2.0,0.11920291930437088,46.26148986816406,0.01
335,0.5506374265362577,0.9039433387110615,0.9209100758396533,-2.0,0.11920291930437088,45.85166931152344,0.01
336,0.7868293156711067,0.813477421020119,0.8743228602383532,-2.0,0.11920291930437088,46.04697799682617,0.01
337,0.568658124382903,0.7100651782430225,0.7778981581798483,-2.0,0.11920291930437088,45.712860107421875,0.01
338,0.8070796019420391,0.764980595844303,0.7941495124593716,-2.0,0.11920291930437088,45.74482727050781,0.01
339,0.7560903553555651,0.891607729332906,0.9176598049837487,-2.0,0.11920291930437088,45.76163101196289,0.01
340,0.7586626786647773,0.8492047894555697,0.8905742145178764,-2.0,0.11920291930437088,45.85322952270508,0.01
341,0.610935265698084,0.8303592284072703,0.8678223185265439,-2.0,0.11920291930437088,45.60685729980469,0.01
342,0.8024977024008588,0.7668652584639363,0.8234019501625135,-2.0,0.11920291930437088,45.634395599365234,0.01
343,0.7220166245611702,0.8826290237034305,0.9111592632719393,-2.0,0.11920291930437088,45.69940948486328,0.01
344,0.7716692816920396,0.8244361885682402,0.8483206933911159,-2.0,0.11920291930437088,45.71439743041992,0.01
345,0.7903608276349742,0.8003657432451172,0.8548212351029253,-2.0,0.11920291930437088,45.78113555908203,0.01
346,0.7775770084160131,0.8510809294209534,0.8884073672806068,-2.0,0.11920291930437088,45.975914001464844,0.01
347,0.9269654343767864,0.666995189549799,0.7995666305525461,-2.0,0.11920291930437088,46.14359664916992,0.01
348,0.6246226077399603,0.877964114545953,0.9003250270855905,-2.0,0.11920291930437088,46.16064453125,0.01
349,0.4931027176903515,0.7450001969875906,0.7746478873239436,-2.0,0.11920291930437088,45.72344207763672,0.01
350,0.7716620975151295,0.7995450543732275,0.8602383531960996,-2.0,0.11920291930437088,45.61069869995117,0.01
351,0.7807551618756318,0.8210464979832558,0.8656554712892741,-2.0,0.11920291930437088,45.82949447631836,0.01
352,0.6344561533230108,0.8797584102528371,0.9100758396533044,-2.0,0.11920291930437088,45.88179016113281,0.01
353,0.525644204238566,0.7686880167731046,0.7995666305525461,-2.0,0.11920291930437088,45.5269775390625,0.01
354,0.5658149871884323,0.8509343119917702,0.8743228602383532,-2.0,0.11920291930437088,45.34183883666992,0.01
355,0.6417431656907244,0.8501985184317629,0.8938244853737811,-2.0,0.11920291930437088,45.32871627807617,0.01
356,0.83784912708329,0.7088204184085038,0.752979414951246,-2.0,0.11920291930437088,45.42958068847656,0.01
357,1.1338105481572267,0.6252493726355608,0.752979414951246,-2.0,0.11920291930437088,46.3735466003418,0.01
358,0.7632165527561816,0.7969833046917987,0.8559046587215602,-2.0,0.11920291930437088,46.60615158081055,0.01
359,0.4907182945710857,0.8779943836510267,0.9014084507042254,-2.0,0.11920291930437088,46.04161834716797,0.01
360,0.4877881932912803,0.9117605072118022,0.9295774647887324,-2.0,0.11920291930437088,45.632930755615234,0.01
361,1.0341428521929719,0.8070476588711042,0.8602383531960996,-2.0,0.11920291930437088,45.90169906616211,0.01
362,1.5390900039091342,0.7859470648490449,0.8526543878656555,-2.0,0.11920291930437088,47.083988189697266,0.01
363,0.49639097510314567,0.8687110274829933,0.8894907908992417,-2.0,0.11920291930437088,46.547943115234375,0.01
364,0.9003351199917677,0.8181138349311219,0.8418201516793066,-2.0,0.11920291930437088,46.550472259521484,0.01
365,0.7693118914598371,0.7514138812046449,0.7854821235102926,-2.0,0.11920291930437088,46.38026809692383,0.01
366,0.8052903308374125,0.7283969766458661,0.819068255687974,-2.0,0.11920291930437088,46.1978874206543,0.01
367,0.5858282266957003,0.9038717244199331,0.9241603466955579,-2.0,0.11920291930437088,45.90993881225586,0.01
368,0.8105332073641986,0.866556853134532,0.8894907908992417,-2.0,0.11920291930437088,45.94073486328125,0.01
369,0.5029694728735017,0.8854173427741197,0.9122426868905742,-2.0,0.11920291930437088,45.62314224243164,0.01
370,0.8199115039371863,0.7438704316999656,0.7984832069339112,-2.0,0.11920291930437088,45.90679168701172,0.01
371,0.6558871283763792,0.8712781828050999,0.9035752979414952,-2.0,0.11920291930437088,46.0267219543457,0.01
372,1.6351409307340297,0.8243036697999819,0.8602383531960996,-2.0,0.11920291930437088,47.430179595947266,0.01
373,0.6690731557404123,0.809302487606115,0.8602383531960996,-2.0,0.11920291930437088,47.140071868896484,0.01
374,0.8205010247666661,0.8277007390087376,0.8634886240520043,-2.0,0.11920291930437088,47.116302490234375,0.01
375,1.1069358503673135,0.8647501027864765,0.8927410617551462,-2.0,0.11920291930437088,47.67406463623047,0.01
376,0.6162635008009468,0.8807304035643421,0.8981581798483207,-2.0,0.11920291930437088,47.347476959228516,0.01
377,0.5741001996325283,0.8697251908795455,0.9014084507042254,-2.0,0.11920291930437088,46.876708984375,0.01
378,1.2240555075610555,0.6896852784662607,0.733477789815818,-2.0,0.11920291930437088,47.511444091796875,0.01
379,0.5758670717477798,0.8805156900013473,0.9079089924160346,-2.0,0.11920291930437088,47.108184814453125,0.01
380,0.5774531371709777,0.8507748548818265,0.8873239436619719,-2.0,0.11920291930437088,46.8714599609375,0.01
381,0.5366126258925694,0.8869044193923475,0.9089924160346695,-2.0,0.11920291930437088,46.50489044189453,0.01
382,0.4931357194010804,0.8999081592205268,0.9219934994582882,-2.0,0.11920291930437088,46.157779693603516,0.01
383,0.3949613440327528,0.9117852606477566,0.9274106175514626,-2.0,0.11920291930437088,45.68156433105469,0.01
384,0.5819624509753251,0.7840619850935808,0.8244853737811484,-2.0,0.11920291930437088,45.54317092895508,0.01
385,0.6337170066629968,0.8959679788071984,0.9209100758396533,-2.0,0.11920291930437088,45.62679672241211,0.01
386,0.5442106011437207,0.8226218227719961,0.8504875406283857,-2.0,0.11920291930437088,45.35488510131836,0.01
387,2.7567653089034847,0.8443550889980787,0.8775731310942578,-2.0,0.11920291930437088,47.58388137817383,0.01
388,0.7641033479353276,0.6939549808238056,0.7822318526543879,-2.0,0.11920291930437088,47.36541748046875,0.01
389,1.0658500507110502,0.8772233321580882,0.905742145178765,-2.0,0.11920291930437088,47.41061782836914,0.01
390,0.5200513499539073,0.850491404845331,0.8905742145178764,-2.0,0.11920291930437088,46.91666793823242,0.01
391,0.6839768512219917,0.7597615472192516,0.8201516793066089,-2.0,0.11920291930437088,46.694915771484375,0.01
392,0.9375787824392319,0.8119517859022011,0.8114842903575298,-2.0,0.11920291930437088,46.8858642578125,0.01
393,0.9886162026626307,0.8817238298614137,0.9068255687973997,-2.0,0.11920291930437088,47.2681884765625,0.01
394,0.5698802863679281,0.7978289092233408,0.8515709642470206,-2.0,0.11920291930437088,46.845375061035156,0.01
395,0.8098407151495538,0.6043163240525014,0.6836403033586133,-2.0,0.11920291930437088,46.8555793762207,0.01
396,1.1328241036432545,0.8829663802965404,0.9024918743228603,-2.0,0.11920291930437088,47.42158889770508,0.01
397,0.6144218103187841,0.8868490297531297,0.9100758396533044,-2.0,0.11920291930437088,47.108943939208984,0.01
398,0.4973437588025884,0.8423309292639353,0.8894907908992417,-2.0,0.11920291930437088,46.70183563232422,0.01
399,0.5823806266232234,0.7590249064187626,0.7778981581798483,-2.0,0.11920291930437088,46.51270294189453,0.01
400,0.6781620365090486,0.793917095152862,0.8244853737811484,-2.0,0.11920291930437088,46.462730407714844,0.01
401,0.46634716558747175,0.844406474179299,0.8851570964247021,-2.0,0.11920291930437088,46.08606719970703,0.01
402,0.8375579760205455,0.8684480708931771,0.9014084507042254,-2.0,0.11920291930437088,46.22445297241211,0.01
403,0.572681065012769,0.8927323978578008,0.9111592632719393,-2.0,0.11920291930437088,45.946258544921875,0.01
404,0.7387847496968943,0.7789511848780848,0.8461538461538461,-2.0,0.11920291930437088,46.032352447509766,0.01
405,0.7826790135444665,0.7220162589729582,0.7443120260021668,-2.0,0.11920291930437088,46.14470291137695,0.01
406,0.6532136854238626,0.8646171247737243,0.8916576381365113,-2.0,0.11920291930437088,46.01324462890625,0.01
407,0.4460134219105651,0.9110785955095618,0.9284940411700975,-2.0,0.11920291930437088,45.58723449707031,0.01
408,0.6260211445936342,0.8668262873354798,0.9003250270855905,-2.0,0.11920291930437088,45.440155029296875,0.01
409,0.9137066162940932,0.808510971307709,0.838569880823402,-2.0,0.11920291930437088,46.00575637817383,0.01
410,0.6409824585042349,0.6767289621539916,0.7518959913326111,-2.0,0.11920291930437088,46.074466705322266,0.01
411,1.02076846942669,0.8328451500262085,0.8396533044420368,-2.0,0.11920291930437088,46.86750411987305,0.01
412,0.5733372154759198,0.8149204134162329,0.8418201516793066,-2.0,0.11920291930437088,46.45848846435547,0.01
413,0.8741633710337848,0.8077175794050111,0.8342361863488624,-2.0,0.11920291930437088,46.486602783203125,0.01
414,0.6435924604898546,0.9069592309551568,0.9263271939328277,-2.0,0.11920291930437088,46.41682052612305,0.01
415,0.6240888423309093,0.8552381411010856,0.875406283856988,-2.0,0.11920291930437088,46.15578079223633,0.01
416,1.3810597792631243,0.8570114492881299,0.8840736728060672,-2.0,0.11920291930437088,47.314456939697266,0.01
417,0.584564258049174,0.8039780116569988,0.8678223185265439,-2.0,0.11920291930437088,46.865474700927734,0.01
418,0.5994309132418981,0.7846506264627078,0.8374864572047671,-2.0,0.11920291930437088,46.49985885620117,0.01
419,0.45226921032114725,0.8421941127809884,0.8764897074756229,-2.0,0.11920291930437088,46.046417236328125,0.01
420,0.4937229011116958,0.6788039355561647,0.7984832069339112,-2.0,0.11920291930437088,45.70619583129883,0.01
421,0.5710957886242285,0.886599013293476,0.9100758396533044,-2.0,0.11920291930437088,45.610374450683594,0.01
422,0.7854216011559091,0.7426039629637688,0.7724810400866738,-2.0,0.11920291930437088,45.89031982421875,0.01
423,1.1687624857919972,0.6905511499132576,0.761646803900325,-2.0,0.11920291930437088,46.64206314086914,0.01
424,0.8128369792205531,0.7126717730126821,0.7995666305525461,-2.0,0.11920291930437088,46.83674621582031,0.01
425,0.5648935402675372,0.7638031352966749,0.7930660888407367,-2.0,0.11920291930437088,46.43381118774414,0.01
426,0.778108850848384,0.8454860723334094,0.8873239436619719,-2.0,0.11920291930437088,46.39081954956055,0.01
427,0.9726087236549796,0.4508990710368611,0.590465872156013,-2.0,0.11920291930437088,46.67037582397461,0.01
428,1.780238201341978,0.7699078359410175,0.7973997833152763,-2.0,0.11920291930437088,48.55427551269531,0.01
429,0.7521774667065318,0.8538528319462747,0.886240520043337,-2.0,0.11920291930437088,48.07179641723633,0.01
430,0.6569148472896437,0.7698781976156187,0.847237269772481,-2.0,0.11920291930437088,47.638404846191406,0.01
431,0.90860788051675,0.5864733255771679,0.7367280606717227,-2.0,0.11920291930437088,47.57560348510742,0.01
432,0.8423131151897151,0.8199279600400011,0.8786565547128927,-2.0,0.11920291930437088,47.564212799072266,0.01
433,0.7263655993269711,0.8819227223996908,0.905742145178765,-2.0,0.11920291930437088,47.403629302978516,0.01
434,1.482696458333876,0.700421105743492,0.7854821235102926,-2.0,0.11920291930437088,48.24493408203125,0.01
435,0.6304056680783993,0.8098241200080658,0.8353196099674973,-2.0,0.11920291930437088,47.91533660888672,0.01
436,0.6791170388460159,0.780310706498445,0.8429035752979415,-2.0,0.11920291930437088,47.70109176635742,0.01
437,0.741692000046009,0.8827978567293112,0.8992416034669556,-2.0,0.11920291930437088,47.5831413269043,0.01
438,0.7197306643172008,0.7779866609215992,0.8439869989165764,-2.0,0.11920291930437088,47.38080978393555,0.01
439,0.48977395165257337,0.8635402558332395,0.8819068255687974,-2.0,0.11920291930437088,47.029441833496094,0.01
440,0.441478142287673,0.8729003619667001,0.8938244853737811,-2.0,0.11920291930437088,46.57626724243164,0.01
441,1.048878534901433,0.8254405227638552,0.8743228602383532,-2.0,0.11920291930437088,47.0377311706543,0.01
442,1.2477359935277845,0.8288854052981938,0.8743228602383532,-2.0,0.11920291930437088,48.12002182006836,0.01
443,0.9759731343606624,0.8800266345687907,0.9024918743228603,-2.0,0.11920291930437088,48.25035858154297,0.01
444,0.8098207679463596,0.895746403596654,0.9165763813651138,-2.0,0.11920291930437088,47.949031829833984,0.01
445,0.5321223753981474,0.8970729055353441,0.9187432286023836,-2.0,0.11920291930437088,47.48654556274414,0.01
446,0.5032588065397449,0.8708060855604165,0.9035752979414952,-2.0,0.11920291930437088,47.051761627197266,0.01
447,0.7488879724973585,0.6556999211766591,0.7930660888407367,-2.0,0.11920291930437088,47.21118927001953,0.01
448,0.6205460436460448,0.6343383077870602,0.7789815817984832,-2.0,0.11920291930437088,47.0411491394043,0.01
449,1.8302736355037224,0.7612101887223301,0.8060671722643553,-2.0,0.11920291930437088,48.986358642578125,0.01
450,0.7704225691353402,0.8772727828248676,0.9035752979414952,-2.0,0.11920291930437088,48.76173400878906,0.01
451,0.5204128913763093,0.8692848835332141,0.90465872156013,-2.0,0.11920291930437088,48.1230354309082,0.01
452,0.573423172642545,0.8542865665775764,0.8927410617551462,-2.0,0.11920291930437088,47.806156158447266,0.01
453,0.5796956343621742,0.8724778931864563,0.8938244853737811,-2.0,0.11920291930437088,47.49238204956055,0.01
454,0.5127083382955412,0.806829362345965,0.8732394366197183,-2.0,0.11920291930437088,47.10850524902344,0.01
455,0.738506010392817,0.7689317260325493,0.8439869989165764,-2.0,0.11920291930437088,46.99657440185547,0.01
456,0.5591596339533969,0.7995935724118637,0.8450704225352113,-2.0,0.11920291930437088,46.794395446777344,0.01
457,0.5322969228756137,0.849141144516166,0.8894907908992417,-2.0,0.11920291930437088,46.53533172607422,0.01
458,0.47527352684154744,0.8589479961155728,0.8959913326110509,-2.0,0.11920291930437088,46.221012115478516,0.01
459,1.1165524350433815,0.838501341855212,0.8634886240520043,-2.0,0.11920291930437088,46.890254974365234,0.01
