cond_number,grad_finite_nonzero,gram_symmetry,outer_loss,solver_residual,step,theta,val_macro_f1,val_mse,w
36547.29143945244,True,3.552713678800501e-14,0.031017546639650704,4.884981308350689e-13,0,-2.0,0.9351485179849846,0.027017546639650704,0.11920292202211755
,True,3.552713678800501e-14,0.030959569525340482,4.864997293907436e-13,1,-1.9900000172348198,0.9351485179849846,0.0269994694567459,0.12025686064439048
,True,3.552713678800501e-14,0.030901684955433828,5.293543381412746e-13,2,-1.9800004407004081,0.9351485179849846,0.026981283210260016,0.1213187909128267
,True,3.552713678800501e-14,0.030843895544480283,5.290767823851183e-13,3,-1.970001547322909,0.9355194172545026,0.026962989448025627,0.12238872062542872
,True,3.552713678800501e-14,0.03078620394047048,5.719869022868806e-13,4,-1.9600036180805804,0.9355194172545026,0.026944589757581516,0.1234666560064553
,True,3.552713678800501e-14,0.030728612821360805,5.471179065352771e-13,5,-1.9500069375650788,0.9355194172545026,0.026926085764808868,0.12455260171854525
,True,3.552713678800501e-14,0.030671124891571318,4.4431125445498765e-13,6,-1.9400117935371508,0.9355194172545026,0.026907479132508086,0.1256465608775
,True,3.552713678800501e-14,0.030613742878479015,4.989342272665453e-13,7,-1.9300184764803434,0.9355194172545026,0.026888771558923507,0.12674853506940897
,True,3.552713678800501e-14,0.030556469528923953,4.1361358782410207e-13,8,-1.9200272791562867,0.9355194172545026,0.026869964776219658,0.12785852436978432
,True,3.552713678800501e-14,0.03049930760575719,4.3720582709738665e-13,9,-1.910038496164992,0.9355194172545026,0.026851060548924967,0.1289765273643603
,True,3.552713678800501e-14,0.030442259884449444,4.621303340002214e-13,10,-1.9000524235134455,0.9355194172545026,0.026832060672350125,0.13010254117120662
,True,3.552713678800501e-14,0.03038532914977269,7.673861546209082e-13,11,-1.8900693581955699,0.9355194172545026,0.026812966970982878,0.1312365614638045
,True,3.552713678800501e-14,0.030328518192584156,5.894729149247269e-13,12,-1.8800895977863905,0.9355194172545026,0.026793781296879565,0.13237858249474022
,True,3.552713678800501e-14,0.03027182980671763,6.554756737386924e-13,13,-1.8701134400529553,0.9355194172545026,0.02677450552805093,0.13352859711968176
,True,3.552713678800501e-14,0.030215266786003496,4.4853010194856324e-13,14,-1.860141182584264,0.9355194172545026,0.026755141566857512,0.13468659682131875
,True,3.552713678800501e-14,0.030158831921422984,4.432010314303625e-13,15,-1.850173122442141,0.9355194172545026,0.026735691338415683,0.1358525717329657
,True,3.552713678800501e-14,0.030102527998414907,5.186961971048731e-13,16,-1.84020955583465,0.9355194172545026,0.026716156789029746,0.13702651066155241
,True,3.552713678800501e-14,0.030046357794326572,6.963318810448982e-13,17,-1.8302507778133215,0.9355194172545026,0.026696539884640304,0.13820840110974994
,True,3.552713678800501e-14,0.029990324076039018,6.716849298982197e-13,18,-1.8202970819951183,0.9355194172545026,0.026676842609319074,0.13939822929701026
,True,3.552713678800501e-14,0.02993442959774105,5.311306949806749e-13,19,-1.8103487603097552,0.9355194172545026,0.02665706696378598,0.14059598017932615
,True,3.552713678800501e-14,0.029878677098879564,5.557221349761221e-13,20,-1.8004061027726597,0.9355194172545026,0.02663721496397853,0.14180163746754906
,True,3.552713678800501e-14,0.02982306930226778,5.290767823851183e-13,21,-1.7904693972835792,0.9355194172545026,0.026617288639658756,0.1430151836441343
,True,3.552713678800501e-14,0.029767608912357787,5.811462422400382e-13,22,-1.780538929450564,0.9355194172545026,0.026597290033068828,0.14423659997821134
,True,3.552713678800501e-14,0.02971229861367526,7.849276784099857e-13,23,-1.7706149824388053,0.9355194172545026,0.02657722119763849,0.1454658665389094
,True,3.552713678800501e-14,0.029657141069403613,5.524469770534779e-13,24,-1.760697836843595,0.9355194172545026,0.0265570841967379,0.14670296220689436
36555.90187143819,True,3.552713678800501e-14,0.029602138920121177,4.858335955759685e-13,25,-1.7507877705864743,0.9355194172545026,0.02653688110248602,0.14794786468410145
,True,3.552713678800501e-14,0.02954729478267725,4.760636329592671e-13,26,-1.740885058833481,0.9355194172545026,0.0265166139946076,0.14920055050167208
,True,3.552713678800501e-14,0.029492611249204402,5.965783422823279e-13,27,-1.7309899739342711,0.9355194172545026,0.026496284959343433,0.15046099502612587
,True,3.552713678800501e-14,0.029438090886255534,5.346834086594754e-13,28,-1.7211027853807845,0.9355194172545026,0.02647589608841004,0.15172917246381887
,True,3.552713678800501e-14,0.029383736234059904,5.400124791776761e-13,29,-1.7112237597840454,0.9355194172545026,0.02645544947801046,0.15300505586375707
,True,3.552713678800501e-14,0.02932954980588553,4.556355293061642e-13,30,-1.7013531608676407,0.9355194172545026,0.026434947227891217,0.15428861711884864
,True,3.552713678800501e-14,0.029275534087502268,4.3787196091216174e-13,31,-1.6914912494763839,0.9355194172545026,0.02641439144044709,0.15557982696569217
,True,3.552713678800501e-14,0.029221691536737336,5.293543381412746e-13,32,-1.6816382835986723,0.9355194172545026,0.026393784219872648,0.15687865498300702
,True,3.552713678800501e-14,0.029168024583107258,5.273559366969494e-13,33,-1.6717945184010532,0.9355194172545026,0.026373127671351446,0.15818506958882095
,True,3.552713678800501e-14,0.02911453562752889,4.318767565791859e-13,34,-1.6619602062735428,0.9355194172545026,0.026352423900292094,0.1594990380365359
,True,3.552713678800501e-14,0.029061227042090586,4.776179451937423e-13,35,-1.6521355968842897,0.9355194172545026,0.026331675011598377,0.16082052640999578
,True,3.552713678800501e-14,0.02900810116988024,4.60964599824365e-13,36,-1.6423209372422258,0.9355194172545026,0.026310883108976058,0.16214949961768307
,True,3.552713678800501e-14,0.028955160324862325,5.231370892033738e-13,37,-1.6325164717664142,0.9355194172545026,0.026290050294273663,0.1634859213861707
,True,3.552713678800501e-14,0.028902406791799985,4.034550471487819e-13,38,-1.6227224423608761,0.9355194172545026,0.026269178666858337,0.16482975425295537
,True,3.552713678800501e-14,0.028849842826204803,5.651590306854359e-13,39,-1.6129390884937576,0.9355194172545026,0.02624827032301373,0.16618095955879505
,True,3.552713678800501e-14,0.02879747065431794,5.899725152858082e-13,40,-1.603166647279777,0.9355194172545026,0.026227327355367657,0.16753949743967111
,True,3.552713678800501e-14,0.028745292473119553,4.831690603168681e-13,41,-1.5934053535649808,0.9355194172545026,0.026206351852350013,0.16890532681849085
,True,3.552713678800501e-14,0.028693310450346593,5.258016244624741e-13,42,-1.5836554400129175,0.9355194172545026,0.026185345897664084,0.1702784053966409
,True,3.552713678800501e-14,0.02864152672452936,7.3568928726786e-13,43,-1.5739171371914233,0.9355194172545026,0.026164311569784514,0.1716586896454972
,True,3.552713678800501e-14,0.028589943405034637,4.846678614001121e-13,44,-1.5641906736592983,0.9355194172545026,0.026143250941471907,0.17304613479799083
,True,3.552713678800501e-14,0.028538562572114488,4.1272540940440194e-13,45,-1.5544762760522288,0.9355194172545026,0.026122166079305283,0.17444069484032318
,True,3.552713678800501e-14,0.028487386276955035,4.4969583612441966e-13,46,-1.5447741691673882,0.9355194172545026,0.02610105904322824,0.1758423225039173
,True,3.552713678800501e-14,0.028436416541726052,5.382361223382759e-13,47,-1.535084576046224,0.9355194172545026,0.026079931886111036,0.17725096925768594
,True,3.552713678800501e-14,0.028385655359624826,5.331290964250002e-13,48,-1.5254077180550023,0.9355194172545026,0.026058786653323056,0.17866658530069132
,True,3.552713678800501e-14,0.02833510469491521,5.266898028821743e-13,49,-1.5157438149627511,0.9355194172545026,0.026037625382317374,0.18008911955526358
36568.3071885315,True,3.552713678800501e-14,0.028284766482959352,5.722644580430369e-13,50,-1.5060930850162966,0.9355194172545026,0.026016450102225447,0.1815185196606411
,True,3.552713678800501e-14,0.028234642630238088,5.646594303243546e-13,51,-1.4964557450121458,0.9338786663243784,0.02599526283345823,0.18295473196718795
,True,3.552713678800501e-14,0.028184735014364963,6.29107876903845e-13,52,-1.4868320103650183,0.9338786663243784,0.025974065587318882,0.18439770153123966
,True,3.552713678800501e-14,0.028135045484084048,5.029865413064272e-13,53,-1.4772220951728692,0.9338786663243784,0.025952860365617128,0.1858473721106224
,True,3.552713678800501e-14,0.02808557585926313,5.186961971048731e-13,54,-1.4676262122782966,0.9338786663243784,0.02593164916029679,0.1873036861608854
,True,3.552713678800501e-14,0.028036327930866415,4.052869151394134e-13,55,-1.4580445733262524,0.9338786663243784,0.02591043395306028,0.1887665848322825
,True,3.552713678800501e-14,0.02798730346092191,4.4586556668946287e-13,56,-1.448477388818013,0.9338786663243784,0.02588921671500486,0.19023600796753384
,True,3.552713678800501e-14,0.027938504182471464,7.496225862269057e-13,57,-1.4389248681613958,0.9338786663243784,0.025867999406258176,0.1917118941003942
,True,3.552713678800501e-14,0.027889931799511054,4.899969319183128e-13,58,-1.4293872197172277,0.9338786663243784,0.025846783975620107,0.19319418045505174
,True,3.552713678800501e-14,0.027841587986920335,5.225264665398299e-13,59,-1.4198646508420953,0.9338786663243784,0.025825572360209388,0.19468280294637594
,True,3.552713678800501e-14,0.027793474390374714,5.568878691519785e-13,60,-1.4103573679274262,0.9351551186969707,0.025804366485107536,0.19617769618103179
,True,3.552713678800501e-14,0.02774559262625136,4.4075854077618715e-13,61,-1.4008655764349622,0.9351551186969707,0.0257831682630109,0.19767879345947317
,True,3.552713678800501e-14,0.0276979442815214,5.861977570020827e-13,62,-1.3913894809287042,0.9351551186969707,0.02576197959388235,0.19918602677882605
,True,3.552713678800501e-14,0.027650530913633686,4.60964599824365e-13,63,-1.3819292851034088,0.9351551186969707,0.025740802364607268,0.2006993268366702
,True,3.552713678800501e-14,0.02760335405038557,4.646838469568593e-13,64,-1.3724851918097387,0.9351551186969707,0.025719638448648555,0.20221862303572452
,True,3.552713678800501e-14,0.027556415189787443,5.577760475716786e-13,65,-1.3630574030761624,0.9351551186969707,0.02569848970570671,0.2037438434894405
,True,3.552713678800501e-14,0.027509715799918226,5.592748486549226e-13,66,-1.353646120127712,0.9351551186969707,0.02567735798138142,0.20527491502850564
,True,3.552713678800501e-14,0.027463257318768548,6.075140390748857e-13,67,-1.3442515434017086,0.9351551186969707,0.02565624510683067,0.20681176320825703
,True,3.552713678800501e-14,0.027417041154086733,4.769518113789672e-13,68,-1.3348738725605678,0.9351551186969707,0.025635152898441885,0.20835431231700352
,True,3.552713678800501e-14,0.02737106868320555,4.408140519274184e-13,69,-1.3255133065017966,0.9351551186969707,0.025614083157492223,0.2099024853852546
,True,3.552713678800501e-14,0.027325341252873406,5.184186413487168e-13,70,-1.3161700433652985,0.9351551186969707,0.025593037669821194,0.21145620419585118
,True,3.552713678800501e-14,0.02727986017907656,7.105427357601002e-13,71,-1.306844280538098,0.9351551186969707,0.02557201820550142,0.21301538929499356
,True,3.552713678800501e-14,0.027234626746856706,3.810285420513537e-13,72,-1.2975362146565972,0.9351551186969707,0.025551026518511336,0.21457996000415994
,True,3.552713678800501e-14,0.027189642210125847,6.569744748219364e-13,73,-1.2882460416064763,0.9351551186969707,0.025530064346411092,0.21614983443290875
,True,3.552713678800501e-14,0.0271449077914809,6.427636201067344e-13,74,-1.2789739565203468,0.9351551186969707,0.02550913341002359,0.21772492949255584
36585.30175673851,True,3.552713678800501e-14,0.027100424682009544,5.453415496958769e-13,75,-1.2697201537732639,0.9351551186969707,0.025488235413111543,0.21930516091071764
,True,3.552713678800501e-14,0.027056194041104976,5.160316618457728e-13,76,-1.2604848269762021,0.9364410365596519,0.02546737204206775,0.22089044324671048
,True,3.552713678800501e-14,0.02701221699627009,5.166977956605479e-13,77,-1.2512681689675984,0.9364410365596519,0.025446544965598564,0.22248068990779496
,True,3.552713678800501e-14,0.02696849464292843,4.503064587879635e-13,78,-1.2420703718030588,0.9364410365596519,0.02542575583441744,0.22407581316625386
,True,3.552713678800501e-14,0.026925028044233537,5.545008896490344e-13,79,-1.2328916267433274,0.9364410365596519,0.025405006280939727,0.2256757241772913
,True,3.552713678800501e-14,0.026881818230881777,4.318767565791859e-13,80,-1.2237321242406103,0.9364410365596519,0.02538429791898334,0.22728033299773984
,True,3.552713678800501e-14,0.026838866200923524,4.600764214046649e-13,81,-1.2145920539233466,0.9364410365596519,0.02536363234346979,0.22888954860556213
,True,3.552713678800501e-14,0.026796172919583,5.859757123971576e-13,82,-1.2054716045795135,0.9364410365596519,0.02534301113013549,0.2305032789201322
,True,3.552713678800501e-14,0.026753739319076555,4.598543767997398e-13,83,-1.1963709641385527,0.9364410365596519,0.025322435835242744,0.23212143082328165
,True,3.552713678800501e-14,0.02671156629843885,4.996003610813204e-13,84,-1.1872903196519993,0.9364410365596519,0.0253019079952995,0.23374391018109425
,True,3.552713678800501e-14,0.026669654723353014,4.331535130575048e-13,85,-1.1782298572728964,0.9364410365596519,0.025281429126783703,0.2353706218664336
,True,3.552713678800501e-14,0.02662800542598326,5.186961971048731e-13,86,-1.1691897622340723,0.9364410365596519,0.025261000725870293,0.23700146978218503
,True,3.552713678800501e-14,0.026586619204819806,4.956035581926699e-13,87,-1.1601702188253569,0.9379249109437928,0.02524062426817053,0.23863635688519585
,True,3.552713678800501e-14,0.02654549682452494,5.313527395855999e-13,88,-1.1511714103698107,0.9379249109437928,0.025220301208472122,0.24027518521089353
,True,3.552713678800501e-14,0.026504639015788707,4.864442182395123e-13,89,-1.142193519199041,0.9379249109437928,0.025200032980488417,0.24191785589856463
,True,3.552713678800501e-14,0.0264640464751926,6.075140390748857e-13,90,-1.1332367266276728,0.9379249109437928,0.025179820996614796,0.2435642692172728
,True,3.552713678800501e-14,0.02642371986508146,5.044853423896711e-13,91,-1.124301212927043,0.9379249109437928,0.02515966664769224,0.2452143245923976
,True,3.552713678800501e-14,0.026383659813442067,4.260480856999038e-13,92,-1.1153871572981882,0.9364410365596519,0.025139571302776335,0.24686792063277083
,True,3.552713678800501e-14,0.02634386691379605,5.337952302397753e-13,93,-1.106494737844186,0.9364410365596519,0.025119536308919176,0.2485249551583909
,True,3.552713678800501e-14,0.026304341725096318,6.072919944699606e-13,94,-1.0976241315419184,0.9364410365596519,0.02509956299095317,0.2501853252286921
,True,3.552713678800501e-14,0.02626508477163929,5.859202012459264e-13,95,-1.088775514213315,0.9364410365596519,0.025079652651288822,0.2518489271713455
,True,3.552713678800501e-14,0.026226096542984367,4.476419235288631e-13,96,-1.079949060496142,0.9364410365596519,0.025059806569717867,0.25351565661156955
,True,3.552713678800501e-14,0.026187377493885416,4.769518113789672e-13,97,-1.071144943814391,0.9364410365596519,0.02504002600322628,0.25518540850192534
,True,3.552713678800501e-14,0.02614892804423541,4.39648317751562e-13,98,-1.0623633363483305,0.9364410365596519,0.025020312185818253,0.25685807715257286
,True,3.552713678800501e-14,0.02611074857901992,4.654054919228656e-13,99,-1.0536044090042742,0.9364410365596519,0.025000666328346674,0.25853355626196284
36607.32372199594,True,3.552713678800501e-14,0.02607283944828528,4.065636716177323e-13,100,-1.044868331384124,0.9364410365596519,0.024981089618355837,0.2602117389479397
,True,3.552713678800501e-14,0.026035200967117287,6.29107876903845e-13,101,-1.03615527175474,0.9364410365596519,0.024961583219932148,0.2618925177792289
,True,3.552713678800501e-14,0.025997833415636416,4.574118861455645e-13,102,-1.0274653970171934,0.9364410365596519,0.024942148273568717,0.2635757848072831
,True,3.552713678800501e-14,0.02596073703899907,5.857536677922326e-13,103,-1.0187988726759538,0.9364410365596519,0.024922785896033275,0.2652614315984606
,True,3.552713678800501e-14,0.025923912047421917,5.240252676230739e-13,104,-1.0101558628080611,0.9377194044618967,0.024903497180256418,0.26694934926650904
,True,3.552713678800501e-14,0.02588735861620978,5.098144129078719e-13,105,-1.0015365300323342,0.9390020161093788,0.024884283195220572,0.26863942850532674
,True,3.552713678800501e-14,0.02585107688580528,5.361822097427194e-13,106,-0.9929410354786632,0.9390020161093788,0.02486514498586784,0.27033155962197514
,True,3.552713678800501e-14,0.025815066961847107,6.427636201067344e-13,107,-0.9843695387574343,0.9390020161093788,0.024846083573013582,0.27202563256991386
,True,3.552713678800501e-14,0.02577932891524488,3.981814877818124e-13,108,-0.9758221979291337,0.9390020161093788,0.024827099953273635,0.2737215369824306
,True,3.552713678800501e-14,0.025743862782268898,6.448175327022909e-13,109,-0.9672991694741757,0.9390020161093788,0.024808195099003467,0.2754191622062384
,True,3.552713678800501e-14,0.02570866856465164,3.7925218521195347e-13,110,-0.9588006082629992,0.9390020161093788,0.02478936995824614,0.27711839733521076
,True,3.552713678800501e-14,0.025673746229704336,5.207501097004297e-13,111,-0.950326667526475,0.9390020161093788,0.02477062545469236,0.2788191312442281
,True,3.552713678800501e-14,0.02563909571045002,4.9649173661237e-13,112,-0.9418774988266667,0.9390020161093788,0.02475196248765404,0.280521252623106
,True,3.552713678800501e-14,0.025604716905770424,4.931610675384945e-13,113,-0.9334532520279847,0.9390020161093788,0.0247333819320488,0.28222465001057734
,True,3.552713678800501e-14,0.02557060968056277,5.115907697472721e-13,114,-0.9250540752687711,0.9390020161093788,0.02471488463839141,0.28392921182830005
,True,3.552713678800501e-14,0.025536773865918044,5.935807401158399e-13,115,-0.9166801149333563,0.9390020161093788,0.02469647143280381,0.285634826414863
,True,3.552713678800501e-14,0.025503209259308244,5.131450819817474e-13,116,-0.9083315156246191,0.9390020161093788,0.024678143117031325,0.28734138205976045
,True,3.552713678800501e-14,0.025469915624790677,4.514721929638199e-13,117,-0.9000084201370895,0.9390020161093788,0.024659900468473016,0.28904876703730975
,True,3.552713678800501e-14,0.025436892693226527,6.410427744185654e-13,118,-0.8917109694306234,0.9390020161093788,0.024641744240223626,0.2907568696404821
,True,3.552713678800501e-14,0.025404140162507836,6.945555242054979e-13,119,-0.8834393026046848,0.9390020161093788,0.024623675161121183,0.2924655782146209
,True,3.552713678800501e-14,0.025371657697809226,4.1716630150290257e-13,120,-0.8751935568732618,0.9377463621696724,0.024605693935816755,0.2941747811910203
,True,3.552713678800501e-14,0.025339444931841953,5.160316618457728e-13,121,-0.8669738675404489,0.9377463621696724,0.02458780124484391,0.29588436712033706
,True,3.552713678800501e-14,0.025307501465129095,4.070077608275824e-13,122,-0.8587803679767201,0.9377463621696724,0.024569997744706865,0.2975942247058095
,True,3.552713678800501e-14,0.025275826866290072,5.453415496958769e-13,123,-0.8506131895959196,0.9377463621696724,0.02455228406797553,0.29930424283625817
,True,4.263256414560601e-14,0.025244420672339885,4.337086245698174e-13,124,-0.8424724618329942,0.9377463621696724,0.02453466082339294,0.30101431061884293
36634.21035599979,True,3.552713678800501e-14,0.02521328238900137,4.007905118896815e-13,125,-0.8343583121224892,0.9377463621696724,0.02451712859599348,0.302724317411551
,True,3.552713678800501e-14,0.02518241149102871,4.3137715621810457e-13,126,-0.8262708658778292,0.9377463621696724,0.02449968794723021,0.3044341528553924
,True,3.552713678800501e-14,0.02515180742254353,4.3076653355456074e-13,127,-0.8182102464714023,0.9377463621696724,0.024482339415112738,0.3061437069062792
,True,3.552713678800501e-14,0.025121469597383105,6.092903959142859e-13,128,-0.8101765752154667,0.9362557635997826,0.02446508351435524,0.3078528698665647
,True,3.552713678800501e-14,0.025091397399460907,5.557776461273534e-13,129,-0.802169971343894,0.9362557635997826,0.024447920736535043,0.30956153241622103
,True,3.552713678800501e-14,0.025061590183137625,4.260480856999038e-13,130,-0.7941905519947646,0.9362557635997826,0.024430851550259876,0.31126958564363333
,True,3.552713678800501e-14,0.02503204727360246,5.184186413487168e-13,131,-0.7862384321938285,0.9362557635997826,0.024413876401343848,0.31297692107598796
,True,3.552713678800501e-14,0.02500276796726534,4.511946372076636e-13,132,-0.7783137248388409,0.9362557635997826,0.02439699571299283,0.31468343070923727
,True,3.552713678800501e-14,0.02497375153216095,4.3098857815948577e-13,133,-0.7704165406847844,0.9362557635997826,0.02438020988600024,0.31638900703761846
,True,3.552713678800501e-14,0.024944997208360273,4.224953720211033e-13,134,-0.7625469883299846,0.9362557635997826,0.024363519298949143,0.31809354308270943
,True,3.552713678800501e-14,0.024916504208390783,4.993783164763954e-13,135,-0.7547051742031258,0.9362557635997826,0.02434692430842181,0.3197969324220027
,True,3.552713678800501e-14,0.02488827171766975,4.829470157119431e-13,136,-0.7468912025511727,0.9362557635997826,0.024330425249221414,0.32149906921698085
,True,3.552713678800501e-14,0.024860298894942675,4.849454171562684e-13,137,-0.7391051754282005,0.9362557635997826,0.024314022434597925,0.3231998482406763
,True,3.552713678800501e-14,0.024832584872728377,4.0611958240788226e-13,138,-0.7313471926851369,0.9362557635997826,0.024297716156479948,0.3248991649047003
,True,3.552713678800501e-14,0.024805128757777396,4.2432724001173483e-13,139,-0.7236173519604157,0.9362557635997826,0.02428150668571919,0.32659691528572593
,True,3.552713678800501e-14,0.02477792963153224,7.386868894343479e-13,140,-0.7159157486715417,0.9362557635997826,0.024265394272336305,0.32829299615141155
,True,3.552713678800501e-14,0.024750986550595065,5.859757123971576e-13,141,-0.7082424760075661,0.9362557635997826,0.02424937914577374,0.32998730498575146
,True,3.552713678800501e-14,0.02472429854720787,4.154454558147336e-13,142,-0.7005976249224662,0.9362557635997826,0.02423346151516087,0.3316797400138407
,True,3.552713678800501e-14,0.024697864629727326,4.560796185160143e-13,143,-0.6929812841294294,0.9362557635997826,0.024217641569573654,0.3333702002260444
,True,3.552713678800501e-14,0.024671683783117664,7.392420009466605e-13,144,-0.6853935400960309,0.9362557635997826,0.024201919478312295,0.33505858540155914
,True,3.552713678800501e-14,0.024645754969438174,5.12201392410816e-13,145,-0.6778344770403025,0.9362557635997826,0.024186295391173673,0.3367447961313574
,True,3.552713678800501e-14,0.02462007712834261,4.354294702579864e-13,146,-0.6703041769276816,0.9362557635997826,0.024170769438735914,0.33842873384050703
,True,3.552713678800501e-14,0.024594649177577803,4.432010314303625e-13,147,-0.6628027194688328,0.9362557635997826,0.024155341732642523,0.3401103008098561
,True,3.552713678800501e-14,0.02456947001348988,3.9457326295178063e-13,148,-0.6553301821183322,0.9362557635997826,0.024140012365894633,0.34178940019707726
,True,3.552713678800501e-14,0.02454453851152996,4.4614312244561916e-13,149,-0.6478866400742014,0.9362557635997826,0.02412478141314332,0.3434659360570649
36665.107837633564,True,3.552713678800501e-14,0.024519853526766746,4.0478731477833207e-13,150,-0.640472166278283,0.9362557635997826,0.02410964893098955,0.3451398133616788
,True,3.552713678800501e-14,0.024495413894397917,5.115907697472721e-13,151,-0.6330868314174403,0.9362557635997826,0.024094614958283744,0.3468109380188311
,True,3.552713678800501e-14,0.02447121843026621,5.663802760125236e-13,152,-0.6257307039255713,0.9362557635997826,0.02407967951643102,0.3484792168909111
,True,3.552713678800501e-14,0.024447265931375448,4.578559753554146e-13,153,-0.6184038499864206,0.9362557635997826,0.02406484260969742,0.35014455781254566
,True,3.552713678800501e-14,0.024423555176409397,5.616618281578667e-13,154,-0.6111063335371747,0.9362557635997826,0.024050104225520147,0.3518068696076927
,True,3.552713678800501e-14,0.024400084926247664,3.784195179434846e-13,155,-0.6038382162728247,0.9362557635997826,0.02403546433481612,0.3534660621060655
,True,3.552713678800501e-14,0.024376853924489347,4.929390229335695e-13,156,-0.5965995576512806,0.9362557635997826,0.024020922892299644,0.3551220461588883
,True,3.552713678800501e-14,0.024353860897967743,3.9324099532223045e-13,157,-0.5893904148992194,0.9362557635997826,0.02400647983679267,0.35677473365398177
,True,3.552713678800501e-14,0.024331104557271683,7.043254868221993e-13,158,-0.5822108430186507,0.9362557635997826,0.023992135091543194,0.3584240375301789
,True,3.552713678800501e-14,0.02430858359726188,3.733124920302089e-13,159,-0.5750608947941801,0.9362557635997826,0.023977888564540396,0.3600698717910741
,True,3.552713678800501e-14,0.0242862966975889,4.109490525650017e-13,160,-0.5679406208009546,0.9362557635997826,0.023963740148833124,0.36171215151810476
,True,3.552713678800501e-14,0.024264242523210057,3.9523939676655573e-13,161,-0.5608500694132692,0.9362557635997826,0.023949689722849186,0.363350792882971
,True,3.552713678800501e-14,0.024242419724899367,4.0795145039851377e-13,162,-0.553789286813816,0.9362557635997826,0.023935737150709614,0.3649857131593934
,True,3.552713678800501e-14,0.024220826939762397,5.322686735809157e-13,163,-0.546758317003558,0.9362557635997826,0.023921882282549833,0.3666168307342152
,True,3.552713678800501e-14,0.024199462791745122,4.455880109333066e-13,164,-0.5397572018122068,0.9362557635997826,0.02390812495483698,0.3682440651178519
,True,3.552713678800501e-14,0.024178325892138607,4.4375614294267507e-13,165,-0.5327859809092839,0.9362557635997826,0.02389446499068514,0.3698673369540933
,True,3.552713678800501e-14,0.024157414840084504,4.005684672847565e-13,166,-0.5258446918157481,0.9362557635997826,0.023880902200173706,0.37148656802926355
,True,3.552713678800501e-14,0.024136728223075082,4.409805853811122e-13,167,-0.5189333699161668,0.9362557635997826,0.02386743638066253,0.37310168128074545
,True,3.552713678800501e-14,0.024116264617448882,3.8902214782865485e-13,168,-0.5120520484714123,0.9362557635997826,0.023854067317105113,0.3747126008048745
,True,3.552713678800501e-14,0.024096022588883825,5.162537064506978e-13,169,-0.5052007586318628,0.9362557635997826,0.023840794782361615,0.3763192518642105
